ECG
0.02215576171875
0.0116729736328125
0.00311279296875
-0.003570556640625
0.0030670166015625
0.0276947021484375
0.03076171875
0.0208282470703125
0.0132293701171875
0.0082855224609375
0.0084686279296875
0.0090179443359375
0.008514404296875
0.0098876953125
0.0208282470703125
0.0271453857421875
0.0292510986328125
0.0404205322265625
0.045135498046875
0.0363006591796875
0.02508544921875
0.0233917236328125
0.0291595458984375
0.0322723388671875
0.0353851318359375
0.0347442626953125
0.0387725830078125
0.0316314697265625
0.0289764404296875
0.0299835205078125
0.03900146484375
0.0361175537109375
0.0412445068359375
0.0482940673828125
0.0556182861328125
0.0633087158203125
0.0618438720703125
0.0557098388671875
0.0502166748046875
0.04412841796875
0.0409698486328125
0.04229736328125
0.0408782958984375
0.0352020263671875
0.029754638671875
0.0212860107421875
0.0131378173828125
0.026458740234375
0.0363006591796875
0.04705810546875
0.050994873046875
0.0522308349609375
0.0486602783203125
0.0464630126953125
0.0431671142578125
0.0353851318359375
0.0303497314453125
0.02947998046875
0.0285186767578125
0.0417022705078125
0.0454559326171875
0.03643798828125
0.0266876220703125
0.0231170654296875
0.0247650146484375
0.0345611572265625
0.0328216552734375
0.0323638916015625
0.0379486083984375
0.0356597900390625
0.03753662109375
0.034698486328125
0.0322723388671875
0.0240325927734375
0.022430419921875
0.0315399169921875
0.0427093505859375
0.0488433837890625
0.0496673583984375
0.04998779296875
0.0508575439453125
0.042205810546875
0.0209197998046875
0.01226806640625
-0.0063629150390625
-0.01190185546875
0.0070037841796875
0.0194549560546875
0.02032470703125
0.0200958251953125
0.0490264892578125
0.0635833740234375
0.0721893310546875
0.0776824951171875
0.0877532958984375
0.08038330078125
0.0788726806640625
0.0894012451171875
0.0911407470703125
0.1024017333984375
0.1061553955078125
0.1039581298828125
0.0919647216796875
0.0827178955078125
0.09173583984375
0.1078033447265625
0.1143951416015625
0.1207122802734375
0.13238525390625
0.1263885498046875
0.11956787109375
0.1094512939453125
0.091552734375
0.08331298828125
0.0771331787109375
0.0750274658203125
0.0717315673828125
0.0687103271484375
0.0589141845703125
0.0585479736328125
0.058135986328125
0.0503997802734375
0.0448150634765625
0.04339599609375
0.0515899658203125
0.0603790283203125
0.0669708251953125
0.076080322265625
0.0830841064453125
0.0835418701171875
0.0771331787109375
0.0532379150390625
0.0336456298828125
0.030120849609375
0.0299835205078125
0.0292510986328125
0.0265045166015625
0.0197296142578125
0.0179443359375
0.02435302734375
0.0233001708984375
0.0196380615234375
0.011444091796875
0.0044403076171875
0.0076904296875
0.0164794921875
0.0104827880859375
-0.0027923583984375
-0.0005035400390625
0.0065460205078125
0.0119476318359375
0.00897216796875
0.0005950927734375
-0.0044403076171875
-0.0040740966796875
-0.001739501953125
-0.00164794921875
0.004119873046875
0.0091094970703125
0.00970458984375
0.0190887451171875
0.0138702392578125
0.0036163330078125
0.0018768310546875
-0.0035247802734375
0.0016021728515625
0.0104827880859375
0.0022430419921875
-0.0186309814453125
-0.0130462646484375
0.0067291259765625
0.045501708984375
0.0858306884765625
0.1197509765625
0.1432342529296875
0.1641082763671875
0.1684112548828125
0.1459808349609375
0.1258392333984375
0.09136962890625
0.0690765380859375
0.0533294677734375
0.047515869140625
0.0493927001953125
0.0537872314453125
0.06129455566406251
0.0926055908203125
0.1896514892578125
0.3247833251953125
0.3777008056640625
0.3454742431640625
0.3114166259765625
0.29425048828125
0.28509521484375
0.2885284423828125
0.3328399658203125
0.4228363037109375
0.5202484130859375
0.5799407958984375
0.590606689453125
0.5702362060546875
0.5244598388671875
0.48834228515624994
0.4411468505859375
0.4217376708984375
0.43231201171875
0.42132568359375
0.3816375732421875
0.332794189453125
0.29095458984375
0.2316741943359375
0.1575164794921875
0.0907745361328125
0.0178985595703125
-0.0289306640625
-0.0678863525390625
-0.0982818603515625
-0.11627197265625
-0.1314697265625
-0.14556884765625
-0.1494598388671875
-0.1611785888671875
-0.1622772216796875
-0.1814117431640625
-0.1782073974609375
-0.1784820556640625
-0.1926727294921875
-0.2096099853515625
-0.20379638671875
-0.20086669921875
-0.2187652587890625
-0.2245330810546875
-0.2249908447265625
-0.2113037109375
-0.20343017578125
-0.2063140869140625
-0.2160186767578125
-0.2296600341796875
-0.2400970458984375
-0.24504089355468753
-0.2344207763671875
-0.2296142578125
-0.22540283203125
-0.2141876220703125
-0.2088775634765625
-0.214508056640625
-0.22027587890625
-0.2328643798828125
-0.235565185546875
-0.2619781494140625
-0.2845001220703125
-0.3003387451171875
-0.3031768798828125
-0.2910003662109375
-0.28948974609375
-0.2853240966796875
-0.265045166015625
-0.2553863525390625
-0.267333984375
-0.2706756591796875
-0.27044677734375
-0.2725067138671875
-0.2765350341796875
-0.27667236328125
-0.2812042236328125
-0.282989501953125
-0.2790985107421875
-0.2706298828125
-0.270538330078125
-0.2633056640625
-0.2612457275390625
-0.251861572265625
-0.2402801513671875
-0.227874755859375
-0.2151031494140625
-0.2029266357421875
-0.1977996826171875
-0.1969757080078125
-0.19317626953125
-0.1845245361328125
-0.18218994140625
-0.187408447265625
-0.1859893798828125
-0.1870880126953125
-0.1890106201171875
-0.1791229248046875
-0.1627349853515625
-0.1648406982421875
-0.1531219482421875
-0.1358184814453125
-0.1293182373046875
-0.13458251953125
-0.133758544921875
-0.1275787353515625
-0.1281280517578125
-0.1320648193359375
-0.1362762451171875
-0.14300537109375
-0.1540374755859375
-0.168731689453125
-0.170013427734375
-0.15472412109375
-0.1360015869140625
-0.1269378662109375
-0.1169586181640625
-0.12139892578125
-0.1434173583984375
-0.1487274169921875
-0.1507415771484375
-0.1377410888671875
-0.1310577392578125
-0.12762451171875
-0.1296844482421875
-0.1286773681640625
-0.1186065673828125
-0.1017608642578125
-0.0988311767578125
-0.0999298095703125
-0.1056976318359375
-0.1056060791015625
-0.1082611083984375
-0.107940673828125
-0.1013946533203125
-0.1028594970703125
-0.10675048828125
-0.0853729248046875
-0.0943450927734375
-0.1094512939453125
-0.1092681884765625
-0.1022186279296875
-0.0970916748046875
-0.1027679443359375
-0.1002044677734375
-0.0914154052734375
-0.0798797607421875
-0.06243896484374999
-0.041839599609375
-0.027191162109375
-0.0029754638671875
0.0148773193359375
0.0167083740234375
0.0120391845703125
0.0079193115234375
0.011077880859375
0.0190887451171875
0.0061798095703125
-0.004669189453125
0.0081024169921875
0.02655029296875
0.0401458740234375
0.0629425048828125
0.0724639892578125
0.0908660888671875
0.1000213623046875
0.1153106689453125
0.1328887939453125
0.1377410888671875
0.1279449462890625
0.13421630859375
0.14593505859375
0.1481781005859375
0.15765380859375
0.1541290283203125
0.1515655517578125
0.1441497802734375
0.162872314453125
0.1823272705078125
0.1934967041015625
0.2046661376953125
0.21295166015625
0.2207794189453125
0.2316741943359375
0.2280120849609375
0.2200469970703125
0.2079620361328125
0.1923065185546875
0.1972503662109375
0.2152862548828125
0.2229766845703125
0.2146453857421875
0.205902099609375
0.20306396484375
0.1990814208984375
0.1980743408203125
0.2039337158203125
0.2145538330078125
0.2197723388671875
0.2211456298828125
0.2207794189453125
0.2105712890625
0.2004547119140625
0.1928558349609375
0.182373046875
0.1769256591796875
0.1703338623046875
0.1732635498046875
0.170013427734375
0.1640167236328125
0.1551361083984375
0.1471710205078125
0.1422271728515625
0.1372833251953125
0.12483215332031249
0.12474060058593751
0.12835693359375
0.1283111572265625
0.126617431640625
0.1108245849609375
0.1009368896484375
0.0917816162109375
0.0872039794921875
0.0887603759765625
0.0799713134765625
0.0618438720703125
0.0514984130859375
0.067291259765625
0.0526885986328125
0.0471038818359375
0.0417022705078125
0.0237579345703125
0.0043487548828125
-0.0022430419921875
-0.0014190673828125
-0.0007781982421875
0.0091094970703125
0.0031585693359375
-0.0062713623046875
-0.0167999267578125
-0.0167999267578125
-0.0058135986328125
0.0108489990234375
0.0193634033203125
0.0285186767578125
0.03277587890625
0.0383148193359375
0.0390472412109375
0.0366668701171875
0.0413360595703125
0.0564422607421875
0.0566253662109375
0.0564422607421875
0.0598297119140625
0.06536865234375
0.0706329345703125
0.0812530517578125
0.097412109375
0.1002960205078125
0.1045989990234375
0.10272216796875
0.0896759033203125
0.0763092041015625
0.06390380859375
0.05841064453125
0.06243896484374999
0.0729217529296875
0.0703582763671875
0.0688934326171875
0.0880279541015625
0.095489501953125
0.1101837158203125
0.1260223388671875
0.1210784912109375
0.1142120361328125
0.1106414794921875
0.0937957763671875
0.0783233642578125
0.0615234375
0.04888916015625
0.0488433837890625
0.05694580078125
0.07489013671875
0.09576416015625
0.0921478271484375
0.0764923095703125
0.06175231933593749
0.0544281005859375
0.0516815185546875
0.0675201416015625
0.0835418701171875
0.0767669677734375
0.0690765380859375
0.0529632568359375
0.021881103515625
-0.006134033203125
-0.0344696044921875
-0.0455474853515625
-0.0353851318359375
-0.0278778076171875
-0.02838134765625
-0.031402587890625
-0.0318145751953125
-0.0310821533203125
-0.0270538330078125
-0.0160675048828125
-0.00750732421875
-0.0040740966796875
-0.0022430419921875
-0.0047607421875
-0.0123138427734375
-0.0113983154296875
-0.0063629150390625
-0.0136871337890625
-0.0256805419921875
-0.0305328369140625
-0.0284271240234375
-0.0172576904296875
-0.0093841552734375
-0.0111236572265625
-0.0185394287109375
-0.021697998046875
-0.02618408203125
-0.04119873046875
-0.0354766845703125
-0.0455474853515625
-0.0472869873046875
-0.04595947265625
-0.0486602783203125
-0.0542449951171875
-0.0392303466796875
-0.0290679931640625
-0.0444488525390625
-0.0496673583984375
-0.0449066162109375
-0.0563507080078125
-0.0575408935546875
-0.0716400146484375
-0.0814361572265625
-0.0765380859375
-0.0619354248046875
-0.05035400390625
-0.0471954345703125
-0.0499420166015625
-0.0527801513671875
-0.0461883544921875
-0.04266357421875
-0.0402374267578125
-0.03900146484375
-0.037994384765625
-0.0313568115234375
-0.03790283203125
-0.0326385498046875
-0.02691650390625
-0.0144195556640625
-0.0113983154296875
-0.0098419189453125
-0.00311279296875
-0.002105712890625
-0.0150604248046875
-0.0360260009765625
-0.0471954345703125
-0.0531463623046875
-0.0527801513671875
-0.03717041015625
-0.0290679931640625
-0.0287017822265625
-0.0195465087890625
-0.022705078125
-0.0162506103515625
-0.0086517333984375
-0.0131378173828125
-0.03167724609375
-0.031173706054687503
-0.0322723388671875
-0.0350189208984375
-0.0250396728515625
-0.0185394287109375
-0.037445068359375
-0.036529541015625
-0.0281524658203125
-0.0178070068359375
-0.0147857666015625
-0.0058135986328125
0.0026092529296875
0.0049896240234375
0.00567626953125
0.0046234130859375
0.0168914794921875
0.0237579345703125
0.0222930908203125
0.020965576171875
0.0241241455078125
0.0398712158203125
0.0493927001953125
0.0467376708984375
0.0513153076171875
0.047515869140625
0.06198120117187501
0.0693511962890625
0.0692596435546875
0.07598876953125
0.0720062255859375
0.0669708251953125
0.0689849853515625
0.07525634765625
0.0857391357421875
0.0908660888671875
0.0908660888671875
0.0948028564453125
0.0923309326171875
0.0770416259765625
0.0498504638671875
0.02801513671875
0.0138702392578125
0.01116943359375
0.03094482421875
0.0395965576171875
0.042755126953125
0.0439910888671875
0.0348358154296875
0.0200958251953125
0.0092926025390625
0.00457763671875
0.0016021728515625
0.0073699951171875
0.0131378173828125
0.006134033203125
0.0024261474609375
-0.0081024169921875
-0.0235748291015625
-0.029022216796875
-0.0403289794921875
-0.051544189453125
-0.04998779296875
-0.04193115234375
-0.0487518310546875
-0.0493011474609375
-0.0484771728515625
-0.0438995361328125
-0.04449462890625
-0.0500335693359375
-0.04962158203125
-0.05145263671875
-0.0570831298828125
-0.0717315673828125
-0.0778656005859375
-0.0796051025390625
-0.060150146484375
-0.0503997802734375
-0.0498504638671875
-0.0509033203125
-0.0586395263671875
-0.0615692138671875
-0.05914306640625
-0.068389892578125
-0.081390380859375
-0.0872955322265625
-0.1089019775390625
-0.1054229736328125
-0.1026763916015625
-0.0947113037109375
-0.0799713134765625
-0.0699005126953125
-0.07012939453125
-0.0747528076171875
-0.06500244140625
-0.0205535888671875
0.022613525390625
0.0408782958984375
0.057220458984375
0.0872955322265625
0.0918731689453125
0.07049560546875
0.0286102294921875
-0.0210113525390625
-0.0265045166015625
-0.017486572265625
-0.0178070068359375
-0.0245361328125
-0.03094482421875
-0.0538787841796875
-0.02691650390625
0.0849609375
0.220458984375
0.2661895751953125
0.24668884277343753
0.2340545654296875
0.2316741943359375
0.2474212646484375
0.286651611328125
0.3565521240234375
0.4678802490234375
0.5680389404296875
0.6260833740234375
0.61724853515625
0.5696868896484375
0.52532958984375
0.4858245849609375
0.4397735595703125
0.3925323486328125
0.3699188232421875
0.37884521484375
0.3733978271484375
0.3434600830078125
0.28985595703125
0.2206878662109375
0.1549530029296875
0.0937957763671875
0.03680419921875
-0.0127716064453125
-0.0581817626953125
-0.0883026123046875
-0.116455078125
-0.1366424560546875
-0.1576080322265625
-0.16387939453125
-0.1651153564453125
-0.16314697265625
-0.1620941162109375
-0.1664886474609375
-0.1761932373046875
-0.1928558349609375
-0.1917572021484375
-0.1885528564453125
-0.1847076416015625
-0.1765594482421875
-0.1779327392578125
-0.1815948486328125
-0.190338134765625
-0.2039337158203125
-0.2075958251953125
-0.20965576171875
-0.2112579345703125
-0.1941375732421875
-0.1828765869140625
-0.1811370849609375
-0.1770172119140625
-0.1806793212890625
-0.179351806640625
-0.1789398193359375
-0.1753692626953125
-0.1759185791015625
-0.1835174560546875
-0.1916656494140625
-0.1970672607421875
-0.19940185546875
-0.19317626953125
-0.1901092529296875
-0.1913909912109375
-0.1929473876953125
-0.19683837890625
-0.2010040283203125
-0.20489501953125
-0.2124481201171875
-0.212493896484375
-0.209381103515625
-0.20196533203125
-0.191253662109375
-0.2013702392578125
-0.1967926025390625
-0.1865386962890625
-0.1742706298828125
-0.1717071533203125
-0.1699676513671875
-0.161041259765625
-0.15362548828125
-0.14996337890625
-0.1446990966796875
-0.1546783447265625
-0.1705169677734375
-0.172210693359375
-0.1713409423828125
-0.1677703857421875
-0.1648406982421875
-0.1425933837890625
-0.1319732666015625
-0.1286773681640625
-0.12327575683593751
-0.1186981201171875
-0.12615966796875
-0.152252197265625
-0.174957275390625
-0.2029266357421875
-0.2165679931640625
-0.2222442626953125
-0.219085693359375
-0.20526123046875
-0.1852569580078125
-0.1941375732421875
-0.2171173095703125
-0.2189483642578125
-0.1995391845703125
-0.1854400634765625
-0.17999267578125
-0.1706085205078125
-0.16790771484375
-0.1744537353515625
-0.1879119873046875
-0.1874542236328125
-0.1762847900390625
-0.1782989501953125
-0.1836090087890625
-0.1922149658203125
-0.19647216796875
-0.1941375732421875
-0.2073211669921875
-0.2201385498046875
-0.2318572998046875
-0.24659729003906253
-0.2421112060546875
-0.25653076171875
-0.2642669677734375
-0.2429351806640625
-0.2305755615234375
-0.2246246337890625
-0.23492431640625
-0.24078369140625
-0.2376251220703125
-0.23236083984375
-0.2343292236328125
-0.236572265625
-0.2201385498046875
-0.1993560791015625
-0.1967010498046875
-0.1938629150390625
-0.2040252685546875
-0.2236175537109375
-0.2285614013671875
-0.2145538330078125
-0.2042083740234375
-0.1986236572265625
-0.1941375732421875
-0.1945953369140625
-0.1974334716796875
-0.1812286376953125
-0.1687774658203125
-0.1529388427734375
-0.1440582275390625
-0.134124755859375
-0.1365509033203125
-0.12464904785156251
-0.1094512939453125
-0.0976409912109375
-0.0934295654296875
-0.095855712890625
-0.1040496826171875
-0.0872955322265625
-0.0682525634765625
-0.0462799072265625
-0.01995849609375
-0.0076446533203125
-0.00714111328125
-0.012176513671875
-0.0039825439453125
-0.0001373291015625
-0.0019683837890625
0.00146484375
0.0138702392578125
0.0252227783203125
0.044219970703125
0.0543365478515625
0.0468292236328125
0.0350189208984375
0.0474700927734375
0.0528717041015625
0.0507659912109375
0.0545654296875
0.0566253662109375
0.0569915771484375
0.06207275390624999
0.07232666015625
0.083038330078125
0.0837249755859375
0.0845489501953125
0.0845489501953125
0.072601318359375
0.0661468505859375
0.0705413818359375
0.0690765380859375
0.076446533203125
0.0820770263671875
0.0862884521484375
0.0921478271484375
0.0939788818359375
0.09869384765625
0.1083526611328125
0.12432861328125
0.1427764892578125
0.15472412109375
0.1470794677734375
0.1335296630859375
0.1145782470703125
0.1034088134765625
0.0837249755859375
0.0783233642578125
0.0770416259765625
0.085052490234375
0.0996551513671875
0.10418701171875
0.1043243408203125
0.0929718017578125
0.0853729248046875
0.1028594970703125
0.1238250732421875
0.1349945068359375
0.142913818359375
0.1420440673828125
0.1349945068359375
0.13165283203125
0.1223602294921875
0.1183319091796875
0.1208953857421875
0.11224365234375
0.1076202392578125
0.103729248046875
0.10601806640625
0.1061553955078125
0.1009368896484375
0.1021270751953125
0.0985565185546875
0.09649658203125
0.0980072021484375
0.0896759033203125
0.0839080810546875
0.081390380859375
0.0821685791015625
0.0838165283203125
0.0860137939453125
0.0841827392578125
0.0808868408203125
0.0744781494140625
0.0807952880859375
0.0838165283203125
0.0773162841796875
0.076263427734375
0.08148193359375
0.08221435546875
0.0797882080078125
0.069488525390625
0.0606536865234375
0.0605621337890625
0.0640411376953125
0.0702667236328125
0.0751190185546875
0.0699005126953125
0.0648651123046875
0.06353759765625
0.05841064453125
0.0553436279296875
0.0549774169921875
0.05401611328125
0.0498504638671875
0.0498504638671875
0.05657958984375
0.06161499023437501
0.0630340576171875
0.0601959228515625
0.0604705810546875
0.0637664794921875
0.0688934326171875
0.0731048583984375
0.07379150390625
0.0742950439453125
0.07232666015625
0.06939697265625
0.0688018798828125
0.0780487060546875
0.08514404296875
0.0895843505859375
0.0869293212890625
0.0827178955078125
0.0782318115234375
0.077178955078125
0.070953369140625
0.0709075927734375
0.0734710693359375
0.072052001953125
0.0666961669921875
0.0690765380859375
0.0666046142578125
0.0670623779296875
0.072601318359375
0.0740203857421875
0.07562255859375
0.0757598876953125
0.0701751708984375
0.0658721923828125
0.07086181640625
0.0680694580078125
0.05584716796875
0.0510406494140625
0.0497589111328125
0.0478363037109375
0.0464630126953125
0.03973388671875
0.0417022705078125
0.0457305908203125
0.0460052490234375
0.0516815185546875
0.0535125732421875
0.0511322021484375
0.0412445068359375
0.0388641357421875
0.03533935546875
0.0359344482421875
0.0339202880859375
0.03790283203125
0.0422515869140625
0.042022705078125
0.0377655029296875
0.0375823974609375
0.03790283203125
0.0395050048828125
0.0411529541015625
0.04522705078125
0.0501708984375
0.0514984130859375
0.049530029296875
0.0496673583984375
0.051544189453125
0.0571746826171875
0.0654144287109375
0.07012939453125
0.0768585205078125
0.0839080810546875
0.0898590087890625
0.08917236328125
0.0838623046875
0.074066162109375
0.0655975341796875
0.0674285888671875
0.0764007568359375
0.0786895751953125
0.0819854736328125
0.0829925537109375
0.0765838623046875
0.0792388916015625
0.0820770263671875
0.079833984375
0.08111572265625
0.08221435546875
0.08880615234375
0.08807373046875
0.090545654296875
0.0916900634765625
0.0908203125
0.0862884521484375
0.08697509765625
0.0909576416015625
0.0867462158203125
0.0787811279296875
0.0842742919921875
0.06646728515625
0.04998779296875
0.0479278564453125
0.0520477294921875
0.04998779296875
0.0438995361328125
0.0369415283203125
0.030990600585937503
0.03076171875
0.0303497314453125
0.0332794189453125
0.0375823974609375
0.0433502197265625
0.047607421875
0.0472869873046875
0.0428009033203125
0.037078857421875
0.0381317138671875
0.04266357421875
0.04852294921875
0.0514984130859375
0.0525970458984375
0.052825927734375
0.05694580078125
0.0640411376953125
0.0680694580078125
0.064910888671875
0.057952880859375
0.0534210205078125
0.0532379150390625
0.0536956787109375
0.057037353515625
0.059967041015625
0.0608367919921875
0.0543365478515625
0.0430755615234375
0.0295257568359375
0.0175323486328125
0.0059051513671875
0.0010528564453125
-0.002471923828125
-0.0027923583984375
-0.008056640625
-0.0138702392578125
-0.0095672607421875
-0.0007781982421875
0.002197265625
0.00274658203125
0.0097503662109375
0.0083770751953125
0.00274658203125
-0.008514404296875
-0.0150604248046875
-0.0173492431640625
-0.0167999267578125
-0.0120391845703125
-0.0083770751953125
-0.00860595703125
-0.0068206787109375
-0.00421142578125
-0.0018310546875
0.0005950927734375
-0.0024261474609375
-0.007049560546875
-0.0207366943359375
-0.03167724609375
-0.0427093505859375
-0.0532379150390625
-0.0579071044921875
-0.0552978515625
-0.0503082275390625
-0.045135498046875
-0.0392303466796875
-0.0286102294921875
-0.0246734619140625
-0.0261383056640625
-0.0341033935546875
-0.0406951904296875
-0.044036865234375
-0.0483856201171875
-0.0558929443359375
-0.06317138671875
-0.0697174072265625
-0.0732879638671875
-0.0744781494140625
-0.0700836181640625
-0.0593719482421875
-0.0532379150390625
-0.05584716796875
-0.0532379150390625
-0.03570556640625
-0.0101165771484375
0.0206451416015625
0.0424346923828125
0.066192626953125
0.0879364013671875
0.099700927734375
0.0870208740234375
0.0486602783203125
0.0098419189453125
-0.01483154296875
-0.03314208984375
-0.04010009765625
-0.0252685546875
-0.0041656494140625
0.0171661376953125
0.0769500732421875
0.1892852783203125
0.26312255859375
0.2330474853515625
0.1718902587890625
0.1279449462890625
0.097137451171875
0.0841827392578125
0.0962677001953125
0.15252685546875
0.24517822265625003
0.3422698974609375
0.3969268798828125
0.3928985595703125
0.3658905029296875
0.3356781005859375
0.3138885498046875
0.3009796142578125
0.303497314453125
0.3066558837890625
0.3106842041015625
0.2998809814453125
0.2712249755859375
0.2162933349609375
0.1509246826171875
0.085235595703125
0.0244903564453125
-0.0292510986328125
-0.071685791015625
-0.0937957763671875
-0.1044158935546875
-0.1126556396484375
-0.115081787109375
-0.11883544921875
-0.12982177734375
-0.1488189697265625
-0.1657562255859375
-0.177337646484375
-0.1868133544921875
-0.19097900390625
-0.1911163330078125
-0.1879119873046875
-0.1843414306640625
-0.1824188232421875
-0.1827392578125
-0.179351806640625
-0.1747283935546875
-0.17578125
-0.1793975830078125
-0.1878204345703125
-0.19757080078125
-0.2035675048828125
-0.2034759521484375
-0.204071044921875
-0.2044830322265625
-0.201873779296875
-0.2010955810546875
-0.2032012939453125
-0.2037506103515625
-0.2028350830078125
-0.2015533447265625
-0.2032012939453125
-0.20196533203125
-0.2010040283203125
-0.1968841552734375
-0.1914825439453125
-0.186859130859375
-0.1858062744140625
-0.1837921142578125
-0.1851654052734375
-0.1855316162109375
-0.18475341796875
-0.1844329833984375
-0.1825103759765625
-0.18402099609375
-0.1858062744140625
-0.1844329833984375
-0.1813201904296875
-0.1780242919921875
-0.1775665283203125
-0.1763763427734375
-0.1706085205078125
-0.1641998291015625
-0.1605377197265625
-0.1596221923828125
-0.1566009521484375
-0.1549072265625
-0.1556854248046875
-0.16278076171875
-0.1706085205078125
-0.1758270263671875
-0.1758270263671875
-0.169647216796875
-0.1541290283203125
-0.14794921875
-0.15142822265625
-0.15216064453125
-0.1504669189453125
-0.14337158203125
-0.1390228271484375
-0.1413116455078125
-0.1503753662109375
-0.1567840576171875
-0.1591644287109375
-0.1571502685546875
-0.1528472900390625
-0.15234375
-0.1538543701171875
-0.1511077880859375
-0.15032958984375
-0.1556854248046875
-0.164886474609375
-0.1748199462890625
-0.18072509765625
-0.18438720703125
-0.1875457763671875
-0.1887359619140625
-0.19171142578125
-0.1985321044921875
-0.19976806640625
-0.198028564453125
-0.1990814208984375
-0.1940460205078125
-0.1875457763671875
-0.1874542236328125
-0.18548583984375
-0.18145751953125
-0.1761016845703125
-0.16864013671875
-0.1629638671875
-0.1617279052734375
-0.16571044921875
-0.1692352294921875
-0.1691436767578125
-0.1695098876953125
-0.1673126220703125
-0.1583404541015625
-0.15234375
-0.151611328125
-0.1511993408203125
-0.1560516357421875
-0.1583404541015625
-0.16058349609375
-0.159942626953125
-0.1594390869140625
-0.1545867919921875
-0.1567840576171875
-0.1570587158203125
-0.1530303955078125
-0.1528472900390625
-0.1527557373046875
-0.151611328125
-0.15875244140625
-0.1490936279296875
-0.1421356201171875
-0.1355438232421875
-0.1267547607421875
-0.11846923828125
-0.1109161376953125
-0.1110076904296875
-0.1007537841796875
-0.0875701904296875
-0.0813446044921875
-0.0742950439453125
-0.0644073486328125
-0.0578155517578125
-0.0570831298828125
-0.0546112060546875
-0.0633087158203125
-0.0758514404296875
-0.061065673828125
-0.0664215087890625
-0.0746612548828125
-0.0759429931640625
-0.0785064697265625
-0.0780487060546875
-0.0842742919921875
-0.08477783203125
-0.07763671875
-0.0677032470703125
-0.0655975341796875
-0.0647735595703125
-0.0603790283203125
-0.0485687255859375
-0.0422515869140625
-0.0402374267578125
-0.0355682373046875
-0.0348358154296875
-0.0324554443359375
-0.0319976806640625
-0.0324554443359375
-0.03863525390625
-0.0458221435546875
-0.044586181640625
-0.0373992919921875
-0.03753662109375
-0.0417938232421875
-0.0504913330078125
-0.0469207763671875
-0.0348358154296875
-0.0286102294921875
-0.02801513671875
-0.0329132080078125
-0.0449981689453125
-0.0455474853515625
-0.04302978515625
-0.04229736328125
-0.0358428955078125
-0.0304412841796875
-0.0208282470703125
-0.0221099853515625
-0.0250396728515625
-0.0282440185546875
-0.0292510986328125
-0.035064697265625
-0.0374908447265625
-0.030303955078125
-0.02288818359375
-0.025177001953125
-0.0211944580078125
-0.0245819091796875
-0.0303497314453125
-0.0290679931640625
-0.02911376953125
-0.0329132080078125
-0.0330963134765625
-0.0424346923828125
-0.0477447509765625
-0.0505828857421875
-0.0322723388671875
-0.0085601806640625
0.0137786865234375
0.0124053955078125
0.0058135986328125
0.0043487548828125
0.0086517333984375
0.0005950927734375
-0.0081939697265625
-0.0110321044921875
-0.0146026611328125
-0.0303497314453125
-0.0369415283203125
-0.0330047607421875
-0.0239410400390625
-0.01885986328125
-0.0137786865234375
-0.0125885009765625
-0.0092926025390625
-0.0048980712890625
-0.001922607421875
-0.0028839111328125
-0.00421142578125
-0.0029754638671875
-0.00274658203125
-0.0038909912109375
-0.0023345947265625
0.0002288818359375
-0.0010528564453125
-0.0059967041015625
-0.0042572021484375
0.0065460205078125
0.0161590576171875
0.0240325927734375
0.031036376953124997
0.0293426513671875
0.0328216552734375
0.0336456298828125
0.0273284912109375
0.0171661376953125
0.0162506103515625
0.020233154296875
0.0222930908203125
0.0229339599609375
0.0245819091796875
0.0254974365234375
0.03240966796875
0.03607177734375
0.0359344482421875
0.03240966796875
0.0383148193359375
0.0476531982421875
0.0515899658203125
0.0551605224609375
0.054107666015625
0.05841064453125
0.0507659912109375
0.03607177734375
0.0219268798828125
0.02508544921875
0.030807495117187503
0.0308990478515625
0.0289764404296875
0.0313568115234375
0.0395050048828125
0.0536041259765625
0.05694580078125
0.0584564208984375
0.0557098388671875
0.0508575439453125
0.0469207763671875
0.0477447509765625
0.043487548828125
0.0379486083984375
0.0319061279296875
0.0329132080078125
0.0330047607421875
0.0319976806640625
0.0315399169921875
0.0342864990234375
0.0336456298828125
0.0367584228515625
0.0406951904296875
0.0428924560546875
0.0445404052734375
0.04339599609375
0.0438079833984375
0.0399627685546875
0.03094482421875
0.0192718505859375
0.01043701171875
0.014923095703125
0.024444580078125
0.02801513671875
0.02398681640625
0.024444580078125
0.024993896484375
0.0286102294921875
0.0201416015625
0.0093841552734375
0.0075531005859375
0.0152435302734375
0.0179901123046875
0.01593017578125
0.01190185546875
0.0132293701171875
0.0059051513671875
-0.000823974609375
-0.0018768310546875
0.0072784423828125
0.0134124755859375
0.0150604248046875
0.0126800537109375
0.0098876953125
0.012359619140625
0.01959228515625
0.0265960693359375
0.0321807861328125
0.0372161865234375
0.0398712158203125
0.04962158203125
0.0460968017578125
0.0444488525390625
0.0493927001953125
0.0351104736328125
0.0252227783203125
0.0181732177734375
0.020050048828125
0.0322723388671875
0.0384063720703125
0.0472869873046875
0.0445404052734375
0.0453643798828125
0.0384063720703125
0.0216522216796875
0.0104827880859375
0.0139617919921875
0.0359344482421875
0.04998779296875
0.0707244873046875
0.0825347900390625
0.1017608642578125
0.1094512939453125
0.1027679443359375
0.0856475830078125
0.076080322265625
0.07763671875
0.0872039794921875
0.10491943359375
0.10491943359375
0.111236572265625
0.1027679443359375
0.0860137939453125
0.0856475830078125
0.0899505615234375
0.096221923828125
0.107391357421875
0.1117401123046875
0.1175079345703125
0.1153106689453125
0.10784912109375
0.09393310546875
0.0804290771484375
0.0784149169921875
0.0870208740234375
0.08258056640625
0.0851898193359375
0.079559326171875
0.0724639892578125
0.0732879638671875
0.07232666015625
0.0727386474609375
0.0753936767578125
0.0785064697265625
0.0782318115234375
0.0742950439453125
0.0651397705078125
0.0604705810546875
0.0610198974609375
0.0611114501953125
0.0602874755859375
0.0574493408203125
0.0474700927734375
0.0379486083984375
0.03314208984375
0.0412445068359375
0.0399627685546875
0.0392303466796875
0.0395965576171875
0.0407867431640625
0.0417022705078125
0.0493927001953125
0.0406036376953125
0.032867431640625
0.0302581787109375
0.02252197265625
0.0124053955078125
0.0097503662109375
0.0178070068359375
0.0323638916015625
0.041107177734375
0.0405120849609375
0.0292510986328125
0.0257720947265625
0.02471923828125
0.0178070068359375
0.0134124755859375
0.0109405517578125
0.00714111328125
-0.001556396484375
-0.002471923828125
0.005218505859375
0.012908935546875
0.02325439453125
0.0449066162109375
0.0764007568359375
0.1133880615234375
0.1439208984375
0.1687774658203125
0.1967010498046875
0.22027587890625
0.2248077392578125
0.2016448974609375
0.1796722412109375
0.168365478515625
0.1593475341796875
0.1681365966796875
0.1915283203125
0.2199554443359375
0.2567596435546875
0.3233184814453125
0.4327239990234375
0.5317840576171875
0.53924560546875
0.4808807373046875
0.4083709716796875
0.3417205810546875
0.2773590087890625
0.2435760498046875
0.276031494140625
0.3662567138671875
0.4511260986328125
0.49566650390625
0.49058532714843756
0.45611572265625
0.4043426513671875
0.3477630615234375
0.3181915283203125
0.30670166015625
0.30706787109375
0.30450439453125
0.2874298095703125
0.2489776611328125
0.194732666015625
0.1404876708984375
0.1018524169921875
0.0673370361328125
0.0328216552734375
0.0108489990234375
-0.00311279296875
-0.0175323486328125
-0.0246734619140625
-0.0366668701171875
-0.0589141845703125
-0.0789642333984375
-0.0893096923828125
-0.09393310546875
-0.0873870849609375
-0.0741119384765625
-0.063629150390625
-0.0533294677734375
-0.056121826171875
-0.0645904541015625
-0.05987548828125
-0.0601043701171875
-0.06280517578125
-0.0591888427734375
-0.0629425048828125
-0.0630340576171875
-0.0705413818359375
-0.0689849853515625
-0.06866455078125
-0.0601043701171875
-0.04998779296875
-0.0461883544921875
-0.044952392578125
-0.0449066162109375
-0.0583648681640625
-0.0706329345703125
-0.077728271484375
-0.0803375244140625
-0.09027099609375
-0.0937957763671875
-0.0897674560546875
-0.0803375244140625
-0.0759429931640625
-0.0718231201171875
-0.0656890869140625
-0.0581817626953125
-0.0552520751953125
-0.049713134765625
-0.0504913330078125
-0.0590057373046875
-0.0674285888671875
-0.0765838623046875
-0.0889892578125
-0.09796142578125
-0.0978240966796875
-0.0930633544921875
-0.0942535400390625
-0.0883941650390625
-0.086334228515625
-0.0861968994140625
-0.0894927978515625
-0.0965423583984375
-0.1015777587890625
-0.099609375
-0.0996551513671875
-0.1061553955078125
-0.1154022216796875
-0.11883544921875
-0.1080780029296875
-0.0989227294921875
-0.0846405029296875
-0.0898590087890625
-0.0981903076171875
-0.1011199951171875
-0.1007537841796875
-0.1030426025390625
-0.103271484375
-0.102630615234375
-0.10235595703125
-0.1067047119140625
-0.11187744140625
-0.1120147705078125
-0.1159515380859375
-0.1193389892578125
-0.1149444580078125
-0.1063385009765625
-0.107391357421875
-0.1019439697265625
-0.0979156494140625
-0.0880279541015625
-0.0967254638671875
-0.1138916015625
-0.1320648193359375
-0.140716552734375
-0.1363677978515625
-0.1292266845703125
-0.12652587890625
-0.1266632080078125
-0.1223602294921875
-0.1224517822265625
-0.12355041503906249
-0.12208557128906249
-0.1237335205078125
-0.120941162109375
-0.12281799316406249
-0.12982177734375
-0.131195068359375
-0.123870849609375
-0.115814208984375
-0.10784912109375
-0.10821533203125
-0.1179656982421875
-0.121124267578125
-0.12405395507812501
-0.1188812255859375
-0.112701416015625
-0.1089019775390625
-0.10125732421875
-0.0981903076171875
-0.0940704345703125
-0.0890350341796875
-0.0839080810546875
-0.0900421142578125
-0.095123291015625
-0.0988311767578125
-0.0915985107421875
-0.0906829833984375
-0.08990478515625
-0.082489013671875
-0.0680694580078125
-0.0647735595703125
-0.066741943359375
-0.0693511962890625
-0.0711822509765625
-0.0704498291015625
-0.06134033203124999
-0.0549774169921875
-0.0460052490234375
-0.0393218994140625
-0.0279693603515625
-0.0063629150390625
0.009796142578125
0.0164337158203125
0.015335083007812498
0.0109405517578125
0.0070037841796875
0.002838134765625
0.00787353515625
0.015609741210937498
0.01446533203125
0.0138702392578125
0.0263214111328125
0.0377655029296875
0.0374908447265625
0.033966064453125
0.03057861328125
0.0271453857421875
0.02984619140625
0.0298919677734375
0.0265960693359375
0.0319061279296875
0.0386810302734375
0.0456390380859375
0.0469207763671875
0.0352020263671875
0.0312652587890625
0.0178070068359375
-0.002471923828125
-0.0135955810546875
-0.0095672607421875
0.0061798095703125
0.0200042724609375
0.0247650146484375
0.02838134765625
0.03057861328125
0.0310821533203125
0.0281524658203125
0.0243072509765625
0.0236663818359375
0.0241241455078125
0.0251312255859375
0.0262298583984375
0.0330047607421875
0.0402374267578125
0.046783447265625
0.05072021484375
0.0560302734375
0.0640411376953125
0.05950927734375
0.0541534423828125
0.049346923828125
0.0457305908203125
0.0465545654296875
0.0482940673828125
0.0560760498046875
0.0562591552734375
0.0471038818359375
0.0406951904296875
0.038177490234375
0.04302978515625
0.0482025146484375
0.0449066162109375
0.0417938232421875
0.0423431396484375
0.0467376708984375
0.0464630126953125
0.0376739501953125
0.0347442626953125
0.0358428955078125
0.0335540771484375
0.0187225341796875
0.00604248046875
-0.002288818359375
0.00238037109375
0.01300048828125
0.01611328125
0.0204620361328125
0.027923583984375
0.0234832763671875
0.0117645263671875
0.0150604248046875
0.009979248046875
0.0029754638671875
-0.0113983154296875
-0.0161590576171875
-0.01300048828125
-0.0035247802734375
-0.0026092529296875
-0.0008697509765625
-0.0056304931640625
-0.0192718505859375
-0.01849365234375
-0.0103912353515625
-0.0007781982421875
-0.0017852783203125
0.00311279296875
0.0054473876953125
0.0042572021484375
0.0065460205078125
0.0143280029296875
0.0204620361328125
0.014556884765625
0.0043487548828125
0.0038909912109375
0.0019683837890625
-0.00567626953125
-0.009796142578125
-0.0083770751953125
0.000640869140625
0.0065460205078125
0.0162506103515625
0.0247650146484375
0.031402587890625
0.0412445068359375
0.0396881103515625
0.0271453857421875
0.0151519775390625
0.0071868896484375
-0.005584716796875
-0.0024261474609375
-0.0024261474609375
0.00274658203125
0.0069122314453125
0.0111236572265625
0.01336669921875
0.0103912353515625
-0.0007781982421875
-0.01629638671875
-0.0199127197265625
-0.0129547119140625
-0.0075531005859375
-0.0064544677734375
-0.0037994384765625
-0.0009613037109375
-0.0035247802734375
-0.0044403076171875
0.002197265625
0.0003204345703125
-0.0065460205078125
-0.0064544677734375
-0.0062713623046875
-0.0048065185546875
-0.0023345947265625
0.0033416748046875
0.0068206787109375
0.0086517333984375
0.01043701171875
0.0207366943359375
0.0234832763671875
0.0128631591796875
0.0014190673828125
-0.0164337158203125
-0.0167083740234375
-0.0146484375
-0.0139617919921875
-0.00970458984375
-0.0048980712890625
-0.0008697509765625
0.00238037109375
0.00201416015625
-0.0003662109375
-0.0073699951171875
-0.0085601806640625
-0.0084686279296875
-0.0052642822265625
-0.0066375732421875
-0.0174407958984375
-0.0065460205078125
0.0004119873046875
0.0074615478515625
0.0024261474609375
0.00457763671875
0.0086517333984375
0.0077362060546875
0.0091094970703125
0.01629638671875
0.0135955810546875
0.0142822265625
0.0143280029296875
0.0126800537109375
0.0069122314453125
-0.0005035400390625
-0.000640869140625
0.0051727294921875
0.0039825439453125
0.0068206787109375
0.0099334716796875
0.0079193115234375
0.0081024169921875
0.0124053955078125
0.0102081298828125
0.0004119873046875
-0.0050811767578125
-0.005767822265625
-0.0019683837890625
0.00164794921875
0.0013275146484375
0.008056640625
0.0200042724609375
0.0318145751953125
0.031494140625
0.03350830078125
0.0354766845703125
0.0401458740234375
0.0296173095703125
0.0258636474609375
0.011810302734375
0.0013275146484375
0.0005950927734375
-0.0008697509765625
-0.0014190673828125
9.1552734375e-05
-0.0009613037109375
-0.0025177001953125
0.0104827880859375
0.0170745849609375
0.0223846435546875
0.03021240234375
0.04193115234375
0.0625762939453125
0.0709991455078125
0.06976318359375
0.0640411376953125
0.0648651123046875
0.07012939453125
0.07855224609375
0.0848236083984375
0.0881195068359375
0.0915985107421875
0.0943450927734375
0.1013031005859375
0.1101837158203125
0.11407470703125
0.11187744140625
0.0998382568359375
0.0826263427734375
0.08056640625
0.085418701171875
0.0849151611328125
0.085784912109375
0.0883026123046875
0.078460693359375
0.0694427490234375
0.0611114501953125
0.050537109375
0.02398681640625
0.0054473876953125
0.003021240234375
0.0066375732421875
0.0064544677734375
0.0118560791015625
0.0170745849609375
0.0165252685546875
0.0189971923828125
0.0189056396484375
0.0146026611328125
0.0126800537109375
0.0075531005859375
-0.0066375732421875
-0.0124053955078125
-0.0132293701171875
-0.01519775390625
-0.0092010498046875
-0.0028839111328125
-0.0091094970703125
-0.0228424072265625
-0.044586181640625
-0.0558013916015625
-0.0537872314453125
-0.0543365478515625
-0.0623016357421875
-0.0598297119140625
-0.05072021484375
-0.0438079833984375
-0.0502166748046875
-0.0466461181640625
-0.0465545654296875
-0.0395050048828125
-0.03277587890625
-0.0322723388671875
-0.04925537109375
-0.0565338134765625
-0.0696258544921875
-0.07305908203125
-0.072052001953125
-0.0636749267578125
-0.0557098388671875
-0.0471954345703125
-0.04669189453125
-0.0489349365234375
-0.0488433837890625
-0.03497314453125
-0.022064208984375
-0.0194549560546875
-0.0110321044921875
0.00238037109375
0.0273284912109375
0.0598297119140625
0.0910491943359375
0.1210784912109375
0.1498260498046875
0.16973876953125
0.1679534912109375
0.141448974609375
0.10931396484375
0.0791473388671875
0.09375
0.10858154296875
0.13677978515625
0.1608123779296875
0.168182373046875
0.2126312255859375
0.3068389892578125
0.4240264892578125
0.4724578857421875
0.4184417724609375
0.3683624267578125
0.3351287841796875
0.29351806640625
0.268157958984375
0.2863311767578125
0.359527587890625
0.4377593994140625
0.4878387451171875
0.5081634521484375
0.502716064453125
0.4759368896484375
0.4361114501953125
0.4034271240234375
0.3853912353515625
0.3726654052734375
0.3643798828125
0.344696044921875
0.2996063232421875
0.2391815185546875
0.1775665283203125
0.12345886230468749
0.065277099609375
0.01922607421875
-0.0135955810546875
-0.03167724609375
-0.0454559326171875
-0.0590057373046875
-0.072418212890625
-0.0918731689453125
-0.1160430908203125
-0.1357269287109375
-0.149505615234375
-0.1507415771484375
-0.150421142578125
-0.1510162353515625
-0.1618194580078125
-0.16497802734375
-0.16754150390625
-0.1625518798828125
-0.1610870361328125
-0.1524810791015625
-0.1476287841796875
-0.1430511474609375
-0.143096923828125
-0.1551361083984375
-0.1565093994140625
-0.1609954833984375
-0.1728973388671875
-0.1693267822265625
-0.1682281494140625
-0.1615447998046875
-0.1503753662109375
-0.1501007080078125
-0.15728759765625
-0.15618896484375
-0.1523895263671875
-0.1437835693359375
-0.1541748046875
-0.1820526123046875
-0.1961517333984375
-0.1799468994140625
-0.16497802734375
-0.15948486328125
-0.163787841796875
-0.1583404541015625
-0.15838623046875
-0.1418609619140625
-0.137786865234375
-0.1484527587890625
-0.14373779296875
-0.140625
-0.1359100341796875
-0.1272125244140625
-0.121673583984375
-0.1143035888671875
-0.1110992431640625
-0.1206207275390625
-0.11370849609375
-0.10052490234375
-0.1023101806640625
-0.1007080078125
-0.0823516845703125
-0.0825347900390625
-0.0886688232421875
-0.08990478515625
-0.0791015625
-0.0773162841796875
-0.0846405029296875
-0.0907745361328125
-0.0959014892578125
-0.0834503173828125
-0.0876617431640625
-0.0884857177734375
-0.0891265869140625
-0.0909576416015625
-0.0929718017578125
-0.0890350341796875
-0.08404541015625
-0.08331298828125
-0.08551025390625
-0.08331298828125
-0.081207275390625
-0.0839080810546875
-0.0876617431640625
-0.086517333984375
-0.0871124267578125
-0.0870208740234375
-0.0820770263671875
-0.0814361572265625
-0.0792388916015625
-0.081390380859375
-0.0916900634765625
-0.0986480712890625
-0.0945281982421875
-0.0808868408203125
-0.0813446044921875
-0.07562255859375
-0.0831756591796875
-0.083587646484375
-0.086151123046875
-0.0809783935546875
-0.0778656005859375
-0.09210205078125
-0.1076202392578125
-0.1096343994140625
-0.1027679443359375
-0.0947113037109375
-0.0924224853515625
-0.0904998779296875
-0.0901336669921875
-0.0937042236328125
-0.0923309326171875
-0.0890350341796875
-0.0862884521484375
-0.0807037353515625
-0.0699920654296875
-0.0641326904296875
-0.065093994140625
-0.062713623046875
-0.0598297119140625
-0.05877685546875
-0.06138610839843749
-0.0684356689453125
-0.0677947998046875
-0.0577239990234375
-0.0482940673828125
-0.0441741943359375
-0.0397796630859375
-0.0417022705078125
-0.0435333251953125
-0.0422515869140625
-0.0373992919921875
-0.0214691162109375
-0.015335083007812498
-0.0075531005859375
0.00860595703125
0.0193634033203125
0.0221099853515625
0.0342864990234375
0.0392303466796875
0.0467376708984375
0.0570831298828125
0.0612030029296875
0.07965087890625
0.0926055908203125
0.080474853515625
0.05841064453125
0.0330047607421875
0.0167999267578125
0.02288818359375
0.0178070068359375
0.02215576171875
0.0352020263671875
0.0355682373046875
0.0428009033203125
0.0461883544921875
0.0493011474609375
0.0577239990234375
0.0629425048828125
0.0651397705078125
0.0636749267578125
0.0675201416015625
0.071502685546875
0.0636749267578125
0.055755615234375
0.0562591552734375
0.07470703125
0.0768585205078125
0.0689849853515625
0.0757598876953125
0.0904083251953125
0.08551025390625
0.0800628662109375
0.07489013671875
0.0734710693359375
0.0746612548828125
0.074249267578125
0.0740203857421875
0.07452392578125
0.0695343017578125
0.069122314453125
0.0650482177734375
0.0600128173828125
0.0510406494140625
0.0435333251953125
0.0452728271484375
0.0522308349609375
0.06353759765625
0.0731048583984375
0.0813446044921875
0.0774993896484375
0.0626678466796875
0.03936767578125
0.01629638671875
0.01702880859375
0.0039825439453125
0.0020599365234375
-0.0063629150390625
-0.0209197998046875
-0.022796630859375
-0.015426635742187498
-0.0104827880859375
0.00238037109375
0.01025390625
0.00640869140625
-0.0010528564453125
-0.0018768310546875
-0.0119476318359375
-0.0194549560546875
-0.0194549560546875
-0.0242156982421875
-0.0286102294921875
-0.0363922119140625
-0.04229736328125
-0.045684814453125
-0.0564422607421875
-0.06939697265625
-0.0737457275390625
-0.0562591552734375
-0.045501708984375
-0.0453643798828125
-0.0388641357421875
-0.02874755859375
-0.027557373046875
-0.0349273681640625
-0.0467376708984375
-0.0454559326171875
-0.0553436279296875
-0.0677947998046875
-0.0732879638671875
-0.0812530517578125
-0.073699951171875
-0.0725555419921875
-0.0733795166015625
-0.0641326904296875
-0.06903076171875
-0.0630340576171875
-0.0537872314453125
-0.0585479736328125
-0.06719970703125
-0.06573486328125
-0.0587310791015625
-0.05364990234375
-0.04998779296875
-0.0680694580078125
-0.078643798828125
-0.0826263427734375
-0.0980987548828125
-0.0948028564453125
-0.0883026123046875
-0.07415771484375
-0.0696258544921875
-0.0672454833984375
-0.0739288330078125
-0.0838623046875
-0.0973663330078125
-0.1012115478515625
-0.0970001220703125
-0.088531494140625
-0.074432373046875
-0.0581817626953125
-0.05877685546875
-0.05767822265625
-0.0519561767578125
-0.0391387939453125
-0.0296630859375
-0.023529052734375
-0.0326385498046875
-0.0341033935546875
-0.0513153076171875
-0.060333251953125
-0.044952392578125
-0.0381317138671875
-0.03607177734375
-0.03424072265625
-0.0361175537109375
-0.0366668701171875
-0.0400543212890625
-0.0487518310546875
-0.0755767822265625
-0.0816192626953125
-0.0488433837890625
-0.0239410400390625
-0.0128173828125
-0.0139617919921875
-0.0196380615234375
-0.0285186767578125
-0.0444488525390625
-0.0509033203125
-0.0446319580078125
-0.029388427734375
-0.01519775390625
-0.0044403076171875
0.0027923583984375
0.00311279296875
0.0003204345703125
-0.005767822265625
-0.0081939697265625
-0.0128631591796875
-0.0158843994140625
-0.0172576904296875
-0.02069091796875
-0.0316314697265625
-0.0364837646484375
-0.0436248779296875
-0.04815673828125
-0.0553436279296875
-0.0678863525390625
-0.07379150390625
-0.0768585205078125
-0.0831756591796875
-0.0875701904296875
-0.0861053466796875
-0.0797882080078125
-0.0815277099609375
-0.0807037353515625
-0.0852813720703125
-0.0990142822265625
-0.1011199951171875
-0.1046905517578125
-0.1110076904296875
-0.1087188720703125
-0.09393310546875
-0.078277587890625
-0.0704498291015625
-0.0694427490234375
-0.0673370361328125
-0.0552520751953125
-0.0492095947265625
-0.037353515625
-0.0249481201171875
-0.015426635742187498
-0.0121307373046875
-0.0134124755859375
-0.0135955810546875
-0.0113067626953125
-0.0078277587890625
0.0057220458984375
0.008880615234375
0.0165252685546875
0.027557373046875
0.0408782958984375
0.0449066162109375
0.0499420166015625
0.054840087890625
0.054931640625
0.04888916015625
0.03753662109375
0.0518646240234375
0.0691680908203125
0.0738372802734375
0.0732879638671875
0.0728302001953125
0.0751190185546875
0.0788726806640625
0.0737457275390625
0.07159423828125
0.0738372802734375
0.0753936767578125
0.086151123046875
0.0903167724609375
0.0805206298828125
0.0653228759765625
0.0530548095703125
0.0409698486328125
0.0424346923828125
0.0546112060546875
0.0796966552734375
0.09722900390625
0.1148529052734375
0.12400817871093751
0.13970947265625
0.15838623046875
0.1808624267578125
0.1815032958984375
0.1622314453125
0.1418609619140625
0.1272125244140625
0.122955322265625
0.137420654296875
0.1567840576171875
0.1741790771484375
0.1827850341796875
0.188140869140625
0.188323974609375
0.18475341796875
0.17852783203125
0.164886474609375
0.1569671630859375
0.1579742431640625
0.15106201171875
0.1406707763671875
0.1271209716796875
0.1035919189453125
0.0838165283203125
0.0845489501953125
0.07122802734375
0.0551605224609375
0.051177978515625
0.0579071044921875
0.0701751708984375
0.0684356689453125
0.0706329345703125
0.0776824951171875
0.0784149169921875
0.0778656005859375
0.0720062255859375
0.0674285888671875
0.0557098388671875
0.0420684814453125
0.0380401611328125
0.0263214111328125
0.015609741210937498
0.011810302734375
0.01190185546875
0.017303466796875
0.02252197265625
0.0228424072265625
0.03131103515625
0.03350830078125
0.03680419921875
0.0260467529296875
0.022247314453125
0.0279693603515625
0.0295257568359375
0.04193115234375
0.05987548828125
0.0530548095703125
0.0421600341796875
0.0405120849609375
0.0375823974609375
0.03460693359375
0.0317230224609375
0.0304412841796875
0.03387451171875
0.0399627685546875
0.0531463623046875
0.060516357421875
0.0671539306640625
0.076446533203125
0.06175231933593749
0.0491180419921875
0.04925537109375
0.0447235107421875
0.0234832763671875
0.0117645263671875
0.02325439453125
0.0531463623046875
0.0927886962890625
0.1399383544921875
0.1750030517578125
0.2058563232421875
0.23052978515625
0.2428436279296875
0.2183074951171875
0.1834259033203125
0.157928466796875
0.1514739990234375
0.1544036865234375
0.167816162109375
0.1821441650390625
0.1953277587890625
0.2248077392578125
0.3107757568359375
0.4278717041015625
0.50518798828125
0.50830078125
0.4838104248046875
0.4601898193359375
0.4151458740234375
0.3763275146484375
0.3820953369140625
0.4304351806640625
0.5133819580078125
0.5925750732421875
0.6046600341796875
0.5504608154296875
0.487518310546875
0.4238433837890625
0.3969268798828125
0.4030609130859375
0.3869476318359375
0.3606719970703125
0.321624755859375
0.2856903076171875
0.2273712158203125
0.14849853515625
0.0785980224609375
0.0468292236328125
0.0270538330078125
0.0032501220703125
-0.0349273681640625
-0.059967041015625
-0.083404541015625
-0.11663818359375
-0.1376953125
-0.1557769775390625
-0.1765594482421875
-0.18621826171875
-0.1858062744140625
-0.1794891357421875
-0.1780242919921875
-0.1793975830078125
-0.1880035400390625
-0.1934967041015625
-0.1999969482421875
-0.198944091796875
-0.1938629150390625
-0.1959686279296875
-0.2064056396484375
-0.2054901123046875
-0.2067718505859375
-0.2159271240234375
-0.21697998046875
-0.2177581787109375
-0.2101593017578125
-0.2025604248046875
-0.2014617919921875
-0.2123565673828125
-0.2273712158203125
-0.2170257568359375
-0.211944580078125
-0.2101593017578125
-0.2149200439453125
-0.2245330810546875
-0.2400970458984375
-0.24151611328125
-0.2376251220703125
-0.22943115234375
-0.2223358154296875
-0.2212371826171875
-0.2309417724609375
-0.2449493408203125
-0.2546539306640625
-0.2633514404296875
-0.2486114501953125
-0.2324981689453125
-0.2070465087890625
-0.1962890625
-0.1806793212890625
-0.1652984619140625
-0.161590576171875
-0.156646728515625
-0.1539459228515625
-0.1523895263671875
-0.14776611328125
-0.128814697265625
-0.1206207275390625
-0.1344451904296875
-0.1454315185546875
-0.14996337890625
-0.1494598388671875
-0.1540374755859375
-0.1522979736328125
-0.152618408203125
-0.1487274169921875
-0.1406707763671875
-0.1371917724609375
-0.132476806640625
-0.1262054443359375
-0.1212615966796875
-0.1201629638671875
-0.1187896728515625
-0.1205291748046875
-0.1190643310546875
-0.113983154296875
-0.111053466796875
-0.1106414794921875
-0.1096343994140625
-0.1102752685546875
-0.1136627197265625
-0.1125640869140625
-0.1138458251953125
-0.11187744140625
-0.1072540283203125
-0.1063385009765625
-0.1059722900390625
-0.107208251953125
-0.1078033447265625
-0.1044158935546875
-0.096221923828125
-0.1089019775390625
-0.1377410888671875
-0.1609039306640625
-0.1653900146484375
-0.1663055419921875
-0.1451568603515625
-0.1315155029296875
-0.1334381103515625
-0.134490966796875
-0.130828857421875
-0.13897705078125
-0.16058349609375
-0.1717987060546875
-0.1663970947265625
-0.169647216796875
-0.1727142333984375
-0.1600799560546875
-0.15435791015625
-0.1428680419921875
-0.1376495361328125
-0.1376953125
-0.1395721435546875
-0.1314239501953125
-0.1274871826171875
-0.1214447021484375
-0.1166839599609375
-0.10455322265625
-0.0985565185546875
-0.0942535400390625
-0.08734130859375
-0.0795135498046875
-0.0777740478515625
-0.0793304443359375
-0.0671539306640625
-0.0548858642578125
-0.0427093505859375
-0.0316314697265625
-0.0221099853515625
-0.0240325927734375
-0.02618408203125
-0.0222930908203125
-0.0178985595703125
-0.015655517578125
-0.0109405517578125
0.0024261474609375
0.0124053955078125
0.0189971923828125
0.0276031494140625
0.0390472412109375
0.0431671142578125
0.0344696044921875
0.0233917236328125
0.0232086181640625
0.0315399169921875
0.036346435546875
0.0388641357421875
0.0456390380859375
0.0502166748046875
0.0454559326171875
0.0346527099609375
0.0265960693359375
0.025726318359375
0.03277587890625
0.0397796630859375
0.041473388671875
0.04742431640625
0.04522705078125
0.036163330078125
0.0279693603515625
0.0246734619140625
0.0283355712890625
0.030487060546875
0.033416748046875
0.0357513427734375
0.0365753173828125
0.0322723388671875
0.026092529296875
0.0219268798828125
0.0102996826171875
0.0171661376953125
0.0377655029296875
0.0560760498046875
0.0632171630859375
0.0589141845703125
0.057586669921875
0.0567626953125
0.0388641357421875
0.0081939697265625
-0.0117645263671875
-0.0202789306640625
-0.0205535888671875
-0.019683837890625
-0.0158843994140625
-0.0073699951171875
-4.57763671875e-05
0.0079193115234375
0.0205535888671875
0.02490234375
0.0241241455078125
0.0178985595703125
0.0077362060546875
-0.001190185546875
-0.011627197265625
-0.0139617919921875
-0.0110321044921875
-0.0137786865234375
-0.020233154296875
-0.0257720947265625
-0.0255889892578125
-0.0246734619140625
-0.0261383056640625
-0.0288848876953125
-0.028839111328125
-0.0277862548828125
-0.0326385498046875
-0.0361175537109375
-0.0357513427734375
-0.0357513427734375
-0.0370330810546875
-0.0365753173828125
-0.0415191650390625
-0.04669189453125
-0.0438995361328125
-0.0359344482421875
-0.0291595458984375
-0.0268707275390625
-0.0282440185546875
-0.0341949462890625
-0.04119873046875
-0.0410614013671875
-0.035247802734375
-0.0292510986328125
-0.01922607421875
-0.0126800537109375
-0.0067291259765625
-0.0051727294921875
-0.0059051513671875
-0.002655029296875
-0.004119873046875
-0.0081024169921875
-0.00732421875
-0.009979248046875
-0.0191802978515625
-0.0209197998046875
-0.01263427734375
-0.0014190673828125
0.0088348388671875
0.01409912109375
0.016204833984375
0.0181732177734375
0.01776123046875
0.0226593017578125
0.0292510986328125
0.0347442626953125
0.0340118408203125
0.029205322265625
0.026641845703125
0.02197265625
0.0237579345703125
0.0244903564453125
0.0216522216796875
0.0211029052734375
0.0215606689453125
0.01190185546875
0.00787353515625
0.0038909912109375
-0.0002288818359375
0.0021514892578125
-0.0021514892578125
-0.00274658203125
0.0042572021484375
0.0101165771484375
0.00970458984375
0.0040740966796875
-0.008697509765625
-0.0188140869140625
-0.024444580078125
-0.0241241455078125
-0.0216522216796875
-0.0215606689453125
-0.0205535888671875
-0.0157928466796875
-0.012908935546875
-0.0159759521484375
-0.0176239013671875
-0.01885986328125
-0.0215606689453125
-0.023895263671875
-0.02655029296875
-0.0260467529296875
-0.0235748291015625
-0.0248565673828125
-0.0271453857421875
-0.0276947021484375
-0.0282440185546875
-0.0279693603515625
-0.02435302734375
-0.0244903564453125
-0.02764892578125
-0.0271453857421875
-0.0265045166015625
-0.0247650146484375
-0.0178985595703125
-0.014556884765625
-0.0177154541015625
-0.0158843994140625
-0.0120391845703125
-0.005859375
-0.00128173828125
-0.00164794921875
-0.0054473876953125
-0.0092010498046875
-0.0113983154296875
-0.0120391845703125
-0.0144195556640625
-0.0145111083984375
-0.015335083007812498
-0.0178985595703125
-0.01959228515625
-0.0204620361328125
-0.0232086181640625
-0.0246734619140625
-0.0217437744140625
-0.0194091796875
-0.0199127197265625
-0.0135955810546875
-0.01446533203125
-0.0180816650390625
-0.0116729736328125
-0.0074615478515625
-0.0114898681640625
-0.0201873779296875
-0.02288818359375
-0.0222930908203125
-0.0201873779296875
-0.0161590576171875
-0.0089263916015625
-0.00567626953125
-0.00054931640625
-0.0040740966796875
-0.0118560791015625
-0.0178985595703125
-0.0151519775390625
-0.0041656494140625
0.0006866455078125
0.0035247802734375
0.0087432861328125
0.00970458984375
0.0120849609375
0.0087432861328125
0.0060882568359375
0.005401611328125
0.0070037841796875
0.019775390625
0.0237579345703125
0.0206451416015625
0.0139617919921875
0.0045318603515625
-0.0030670166015625
-0.0007781982421875
0.0027008056640625
0.0022430419921875
0.0014190673828125
-0.0010528564453125
-0.0020599365234375
-0.001373291015625
0.0016937255859375
0.0029754638671875
0.00714111328125
0.0174407958984375
0.02911376953125
0.0330047607421875
0.0320892333984375
0.0287933349609375
0.02288818359375
0.0207366943359375
0.0285186767578125
0.04193115234375
0.0529632568359375
0.0579986572265625
0.0597381591796875
0.0627593994140625
0.0640411376953125
0.06903076171875
0.074249267578125
0.0753936767578125
0.0680694580078125
0.05255126953125
0.0447235107421875
0.0395965576171875
0.0387725830078125
0.0378570556640625
0.0376739501953125
0.0361175537109375
0.0323638916015625
0.0292510986328125
0.02581787109375
0.0157928466796875
0.0102081298828125
0.01593017578125
0.0178070068359375
0.02398681640625
0.026092529296875
0.0177154541015625
0.0075531005859375
-0.0070037841796875
-0.0195465087890625
-0.0215606689453125
-0.0217437744140625
-0.027191162109375
-0.0378570556640625
-0.0463714599609375
-0.04376220703125
-0.0416107177734375
-0.04815673828125
-0.0533294677734375
-0.0601959228515625
-0.0653228759765625
-0.0711822509765625
-0.076263427734375
-0.07415771484375
-0.07122802734375
-0.0649566650390625
-0.0653228759765625
-0.0700836181640625
-0.07781982421875
-0.0803375244140625
-0.079742431640625
-0.0794219970703125
-0.0736541748046875
-0.0634002685546875
-0.0462799072265625
-0.0363922119140625
-0.0378570556640625
-0.0369415283203125
-0.03167724609375
-0.0278778076171875
-0.0216522216796875
-0.01849365234375
-0.0243072509765625
-0.0334625244140625
-0.0382232666015625
-0.0391387939453125
-0.0346527099609375
-0.0217437744140625
-0.0040740966796875
0.007415771484375
0.0089263916015625
0.0111236572265625
0.0299835205078125
0.06138610839843749
0.09503173828125
0.123870849609375
0.1578826904296875
0.1833343505859375
0.208648681640625
0.2035675048828125
0.166259765625
0.1285858154296875
0.1077117919921875
0.09320068359375
0.084228515625
0.0984649658203125
0.1289520263671875
0.1596221923828125
0.229156494140625
0.3316497802734375
0.3819122314453125
0.3352203369140625
0.2598724365234375
0.1936798095703125
0.1387481689453125
0.0926055908203125
0.0728302001953125
0.1084442138671875
0.1853485107421875
0.2594146728515625
0.2977752685546875
0.3016204833984375
0.2892608642578125
0.2691192626953125
0.252777099609375
0.243621826171875
0.2433013916015625
0.2477874755859375
0.24687194824218747
0.22686767578125
0.1863555908203125
0.1326141357421875
0.0650482177734375
0.0081024169921875
-0.0384521484375
-0.0836334228515625
-0.1094512939453125
-0.1205291748046875
-0.1218109130859375
-0.126983642578125
-0.1352691650390625
-0.1392059326171875
-0.1476287841796875
-0.1597137451171875
-0.168731689453125
-0.1720733642578125
-0.1777496337890625
-0.1847076416015625
-0.192352294921875
-0.1990814208984375
-0.2070465087890625
-0.2097930908203125
-0.2115325927734375
-0.21441650390625
-0.2132720947265625
-0.2052154541015625
-0.1962432861328125
-0.191802978515625
-0.1916656494140625
-0.1915740966796875
-0.19061279296875
-0.1897430419921875
-0.1864471435546875
-0.1791229248046875
-0.1753692626953125
-0.17706298828125
-0.177886962890625
-0.1773834228515625
-0.181182861328125
-0.1847076416015625
-0.1869049072265625
-0.18475341796875
-0.1905670166015625
-0.19537353515625
-0.1956024169921875
-0.1953277587890625
-0.1891021728515625
-0.18145751953125
-0.1795806884765625
-0.1776580810546875
-0.17449951171875
-0.177520751953125
-0.1824188232421875
-0.1847076416015625
-0.1806793212890625
-0.1792144775390625
-0.1721649169921875
-0.165435791015625
-0.1569671630859375
-0.1479949951171875
-0.1415863037109375
-0.1362762451171875
-0.1348114013671875
-0.1360015869140625
-0.1388397216796875
-0.138336181640625
-0.1388397216796875
-0.13751220703125
-0.1374664306640625
-0.1390228271484375
-0.13568115234375
-0.133392333984375
-0.12469482421875001
-0.12213134765625
-0.125885009765625
-0.1294097900390625
-0.126617431640625
-0.12281799316406249
-0.12725830078125
-0.1292266845703125
-0.12908935546875
-0.1301422119140625
-0.133575439453125
-0.1413116455078125
-0.1454315185546875
-0.1446533203125
-0.1445159912109375
-0.14337158203125
-0.1411285400390625
-0.1351776123046875
-0.1245574951171875
-0.1281280517578125
-0.1384735107421875
-0.1449737548828125
-0.1478118896484375
-0.1447906494140625
-0.1408538818359375
-0.13677978515625
-0.1345367431640625
-0.1355438232421875
-0.135040283203125
-0.1307373046875
-0.1304168701171875
-0.131744384765625
-0.1321563720703125
-0.1322479248046875
-0.1321563720703125
-0.1352691650390625
-0.13604736328125
-0.1306915283203125
-0.1206207275390625
-0.1105499267578125
-0.1030426025390625
-0.1013031005859375
-0.1060638427734375
-0.1098175048828125
-0.1110076904296875
-0.1113739013671875
-0.1094512939453125
-0.110137939453125
-0.1120147705078125
-0.1175994873046875
-0.1064300537109375
-0.089630126953125
-0.0784149169921875
-0.078094482421875
-0.0775909423828125
-0.0716400146484375
-0.06427001953125
-0.0565338134765625
-0.04669189453125
-0.0423431396484375
-0.0371246337890625
-0.03131103515625
-0.0289764404296875
-0.030853271484374997
-0.0347442626953125
-0.0352935791015625
-0.0387725830078125
-0.0363922119140625
-0.0282440185546875
-0.0157012939453125
-0.0028839111328125
0.0069122314453125
0.0057220458984375
0.00238037109375
0.0025634765625
0.0046234130859375
0.0076446533203125
0.0113067626953125
0.0044403076171875
-0.0044403076171875
-0.0076446533203125
-0.0106658935546875
-0.01263427734375
-0.017303466796875
-0.018585205078125
-0.01519775390625
-0.0158843994140625
-0.0191802978515625
-0.0212860107421875
-0.0222930908203125
-0.0217437744140625
-0.0239410400390625
-0.02325439453125
-0.0268707275390625
-0.0338287353515625
-0.0358428955078125
-0.037811279296875
-0.0375823974609375
-0.03973388671875
-0.0455474853515625
-0.0508575439453125
-0.055572509765625
-0.0575408935546875
-0.050537109375
-0.0429840087890625
-0.045867919921875
-0.055389404296875
-0.0663299560546875
-0.07489013671875
-0.0827178955078125
-0.0911407470703125
-0.0968170166015625
-0.1013031005859375
-0.10089111328125
-0.1004791259765625
-0.0999298095703125
-0.0973663330078125
-0.0959014892578125
-0.0978240966796875
-0.1011199951171875
-0.1075286865234375
-0.10986328125
-0.10455322265625
-0.0930633544921875
-0.08477783203125
-0.0861968994140625
-0.094757080078125
-0.0990142822265625
-0.1001129150390625
-0.1044158935546875
-0.10418701171875
-0.1018524169921875
-0.0990142822265625
-0.0973663330078125
-0.097137451171875
-0.099151611328125
-0.1066131591796875
-0.1153106689453125
-0.123687744140625
-0.1277618408203125
-0.13018798828125
-0.1263885498046875
-0.1176910400390625
-0.11004638671875
-0.10638427734375
-0.10748291015625
-0.116729736328125
-0.1222686767578125
-0.1214447021484375
-0.1175994873046875
-0.1121063232421875
-0.1110076904296875
-0.109954833984375
-0.107666015625
-0.1062469482421875
-0.10052490234375
-0.0942535400390625
-0.0919647216796875
-0.091278076171875
-0.0933837890625
-0.09283447265625
-0.0904998779296875
-0.08770751953125
-0.0823516845703125
-0.0715484619140625
-0.0638580322265625
-0.0556182861328125
-0.0490264892578125
-0.0483856201171875
-0.0510406494140625
-0.05072021484375
-0.0504913330078125
-0.0533294677734375
-0.05731201171875
-0.05767822265625
-0.0569915771484375
-0.0561676025390625
-0.0563507080078125
-0.0563507080078125
-0.05328369140625
-0.047332763671875
-0.0387725830078125
-0.0321807861328125
-0.0230255126953125
-0.0169830322265625
-0.0165252685546875
-0.0158843994140625
-0.015609741210937498
-0.0170745849609375
-0.01812744140625
-0.0172576904296875
-0.013916015625
-0.0157928466796875
-0.0184478759765625
-0.0180816650390625
-0.0140533447265625
-0.0110321044921875
-0.01190185546875
-0.0094757080078125
-0.005401611328125
-0.0018768310546875
0.0016937255859375
0.0061798095703125
0.0137786865234375
0.0186767578125
0.0222015380859375
0.027191162109375
0.0287933349609375
0.0284271240234375
0.0294342041015625
0.0299835205078125
0.0318145751953125
0.0339202880859375
0.0384063720703125
0.0409698486328125
0.0435333251953125
0.04412841796875
0.0478363037109375
0.047332763671875
0.0482025146484375
0.0505828857421875
0.0563507080078125
0.0557098388671875
0.0521392822265625
0.0518646240234375
0.0548858642578125
0.0558013916015625
0.05859375
0.0611114501953125
0.06234741210937501
0.0637664794921875
0.0684356689453125
0.0720062255859375
0.0718231201171875
0.0708160400390625
0.074432373046875
0.076080322265625
0.075439453125
0.0762176513671875
0.0778656005859375
0.0804290771484375
0.0780487060546875
0.0711822509765625
0.0632171630859375
0.05877685546875
0.0578155517578125
0.06060791015625
0.0702667236328125
0.079742431640625
0.0851898193359375
0.0907745361328125
0.0948028564453125
0.09521484375
0.0933380126953125
0.0909576416015625
0.0897674560546875
0.0885772705078125
0.0907745361328125
0.09320068359375
0.0937042236328125
0.0911407470703125
0.088531494140625
0.0850067138671875
0.0851898193359375
0.0907745361328125
0.0988311767578125
0.1048736572265625
0.1133880615234375
0.1265716552734375
0.1338958740234375
0.1363677978515625
0.1398468017578125
0.1441497802734375
0.1482696533203125
0.1494598388671875
0.1469879150390625
0.1478118896484375
0.148590087890625
0.1535797119140625
0.163787841796875
0.1709747314453125
0.1717071533203125
0.1666259765625
0.16021728515625
0.15472412109375
0.14886474609375
0.1457061767578125
0.1424102783203125
0.1355438232421875
0.1280364990234375
0.12281799316406249
0.1185150146484375
0.1116485595703125
0.107208251953125
0.1076202392578125
0.1086273193359375
0.10784912109375
0.10198974609375
0.097503662109375
0.0939788818359375
0.0929718017578125
0.0965423583984375
0.09539794921875
0.0949859619140625
0.0920562744140625
0.0864715576171875
0.0784149169921875
0.0745697021484375
0.0724639892578125
0.0666046142578125
0.0629425048828125
0.055023193359375
0.0474700927734375
0.047607421875
0.04742431640625
0.0459136962890625
0.0417938232421875
0.033782958984375
0.031036376953124997
0.0327301025390625
0.0323638916015625
0.03131103515625
0.0329132080078125
0.0369415283203125
0.0370330810546875
0.036346435546875
0.0377655029296875
0.0402374267578125
0.0397796630859375
0.0449981689453125
0.0476531982421875
0.0475616455078125
0.0466461181640625
0.0446319580078125
0.043853759765625
0.04193115234375
0.0398712158203125
0.0364837646484375
0.0322723388671875
0.0327301025390625
0.03826904296875
0.041473388671875
0.0395050048828125
0.0394134521484375
0.0560760498046875
0.0845489501953125
0.1169586181640625
0.15106201171875
0.18621826171875
0.2317657470703125
0.27520751953125
0.3061065673828125
0.3101806640625
0.3051910400390625
0.3087615966796875
0.3138885498046875
0.3192901611328125
0.331695556640625
0.3617706298828125
0.3928070068359375
0.4340057373046875
0.5076141357421875
0.6028289794921875
0.61468505859375
0.52459716796875
0.4155120849609375
0.33251953125
0.2704925537109375
0.223297119140625
0.222747802734375
0.2746124267578125
0.3354949951171875
0.3720245361328125
0.3744964599609375
0.3475799560546875
0.318695068359375
0.2942962646484375
0.2754364013671875
0.2807464599609375
0.2953033447265625
0.30157470703125
0.2907257080078125
0.2660980224609375
0.2248077392578125
0.17486572265625
0.1223602294921875
0.0796966552734375
0.0501251220703125
0.0262298583984375
0.0115814208984375
0.0049896240234375
-0.0012359619140625
-0.0092926025390625
-0.0207366943359375
-0.0239410400390625
-0.0257720947265625
-0.02947998046875
-0.0341949462890625
-0.03607177734375
-0.0450897216796875
-0.05401611328125
-0.0558013916015625
-0.0543365478515625
-0.053466796875
-0.0515899658203125
-0.05181884765625
-0.0528717041015625
-0.0530548095703125
-0.0555267333984375
-0.0600128173828125
-0.0663299560546875
-0.0691680908203125
-0.0698089599609375
-0.070037841796875
-0.070220947265625
-0.0731964111328125
-0.0753021240234375
-0.0774078369140625
-0.079376220703125
-0.0833587646484375
-0.0873870849609375
-0.0891265869140625
-0.0876617431640625
-0.08331298828125
-0.08111572265625
-0.0802459716796875
-0.0761260986328125
-0.0698089599609375
-0.06683349609375
-0.065185546875
-0.064361572265625
-0.0644989013671875
-0.06903076171875
-0.0696258544921875
-0.0666961669921875
-0.0646820068359375
-0.0652313232421875
-0.0639495849609375
-0.0618896484375
-0.0633087158203125
-0.0630340576171875
-0.0607452392578125
-0.0601043701171875
-0.0586395263671875
-0.053375244140625
-0.0483856201171875
-0.0444488525390625
-0.0421600341796875
-0.0452728271484375
-0.0481109619140625
-0.0498504638671875
-0.04779052734375
-0.046966552734375
-0.0480194091796875
-0.0445404052734375
-0.04632568359375
-0.04925537109375
-0.0461883544921875
-0.0429840087890625
-0.0406036376953125
-0.0365753173828125
-0.0314483642578125
-0.0278778076171875
-0.02471923828125
-0.0215606689453125
-0.0179901123046875
-0.0163421630859375
-0.0189971923828125
-0.0216522216796875
-0.0269622802734375
-0.0283355712890625
-0.0279693603515625
-0.0267791748046875
-0.0268707275390625
-0.0315399169921875
-0.0381317138671875
-0.0384979248046875
-0.0369415283203125
-0.0352020263671875
-0.031951904296875
-0.032135009765625
-0.0326385498046875
-0.0335540771484375
-0.0359344482421875
-0.0366668701171875
-0.0363922119140625
-0.03350830078125
-0.0324554443359375
-0.0300750732421875
-0.0264129638671875
-0.021881103515625
-0.018768310546875
-0.0167999267578125
-0.013916015625
-0.0133209228515625
-0.01446533203125
-0.0146942138671875
-0.0158843994140625
-0.0182647705078125
-0.0175323486328125
-0.015426635742187498
-0.01226806640625
-0.0103912353515625
-0.0089263916015625
-0.0085601806640625
-0.0023345947265625
0.0029754638671875
0.004669189453125
0.0056304931640625
0.0039825439453125
0.0013275146484375
-0.0004119873046875
0.0022430419921875
0.004852294921875
0.0098419189453125
0.0116729736328125
0.0148773193359375
0.0233917236328125
0.0313568115234375
0.0395050048828125
0.0448150634765625
0.0432586669921875
0.03680419921875
0.0342864990234375
0.0390472412109375
0.04339599609375
0.0423431396484375
0.0422515869140625
0.0467376708984375
0.0478363037109375
0.0483856201171875
0.0489349365234375
0.049896240234375
0.0531463623046875
0.0549774169921875
0.0544281005859375
0.05181884765625
0.04815673828125
0.0457305908203125
0.0464630126953125
0.0467376708984375
0.04412841796875
0.0425262451171875
0.037811279296875
0.0299835205078125
0.02325439453125
0.0164337158203125
0.0138702392578125
0.0177154541015625
0.02288818359375
0.0239410400390625
0.02288818359375
0.017852783203125
0.01263427734375
0.006317138671875
0.0014190673828125
-0.00054931640625
-0.0018768310546875
-0.0011444091796875
0.0018768310546875
0.00531005859375
0.0046234130859375
0.0046234130859375
0.007415771484375
0.0059051513671875
0.0005950927734375
-0.0055389404296875
-0.0091094970703125
-0.0107574462890625
-0.0124053955078125
-0.0125885009765625
-0.0128631591796875
-0.0120391845703125
-0.0123138427734375
-0.0106658935546875
-0.0104827880859375
-0.0162506103515625
-0.02435302734375
-0.0281524658203125
-0.0276947021484375
-0.0272369384765625
-0.0243072509765625
-0.0251312255859375
-0.0257720947265625
-0.02655029296875
-0.0260467529296875
-0.0260467529296875
-0.0245819091796875
-0.0186309814453125
-0.0136871337890625
-0.01300048828125
-0.01629638671875
-0.0200958251953125
-0.02545166015625
-0.031173706054687503
-0.036346435546875
-0.0440826416015625
-0.0532379150390625
-0.05401611328125
-0.0493011474609375
-0.0451812744140625
-0.0454559326171875
-0.0480194091796875
-0.0449981689453125
-0.0395965576171875
-0.0395965576171875
-0.0397796630859375
-0.038726806640625
-0.0362091064453125
-0.0374908447265625
-0.0379486083984375
-0.0373077392578125
-0.0363006591796875
-0.0339202880859375
-0.0298004150390625
-0.0307159423828125
-0.0337371826171875
-0.0368499755859375
-0.0367584228515625
-0.0334625244140625
-0.0290679931640625
-0.0253143310546875
-0.02471923828125
-0.026092529296875
-0.02471923828125
-0.0215606689453125
-0.015426635742187498
-0.01226806640625
-0.012542724609375
-0.014556884765625
-0.0147857666015625
-0.010345458984375
-0.0060882568359375
-0.00201416015625
-0.0005035400390625
0.00146484375
-0.0008697509765625
0.0003204345703125
-4.57763671875e-05
-0.0027008056640625
-0.0050811767578125
-0.0056304931640625
-0.0033416748046875
-0.0033416748046875
-0.0018768310546875
0.006500244140625
0.0117645263671875
0.015609741210937498
0.0202789306640625
0.0233001708984375
0.0259552001953125
0.0289764404296875
0.0322723388671875
0.03240966796875
0.0283355712890625
0.0234832763671875
0.0253143310546875
0.02874755859375
0.0307159423828125
0.0314483642578125
0.0341949462890625
0.0387725830078125
0.03936767578125
0.0403289794921875
0.0408782958984375
0.0383148193359375
0.0396881103515625
0.0401458740234375
0.0396881103515625
0.0395050048828125
0.03936767578125
0.0377197265625
0.03826904296875
0.037811279296875
0.0374908447265625
0.0361175537109375
0.0352020263671875
0.0338287353515625
0.0329132080078125
0.03057861328125
0.0281524658203125
0.0285186767578125
0.0278778076171875
0.02508544921875
0.0222015380859375
0.02362060546875
0.0243988037109375
0.0219268798828125
0.0207366943359375
0.0215606689453125
0.01959228515625
0.0181732177734375
0.01556396484375
0.0135040283203125
0.0128173828125
0.0122222900390625
0.015609741210937498
0.01702880859375
0.018768310546875
0.0215606689453125
0.022979736328125
0.0204620361328125
0.0202789306640625
0.0189971923828125
0.0138702392578125
0.009979248046875
0.00750732421875
0.00164794921875
-0.0020599365234375
-0.00128173828125
0.0008697509765625
0.0044403076171875
0.0054473876953125
0.0043487548828125
0.0048065185546875
0.0064544677734375
0.0075531005859375
0.006866455078125
0.00604248046875
0.0106658935546875
0.0190887451171875
0.0267791748046875
0.0300750732421875
0.0336456298828125
0.0352935791015625
0.0362091064453125
0.0368499755859375
0.0397796630859375
0.0434417724609375
0.04193115234375
0.0405120849609375
0.0396881103515625
0.03973388671875
0.0398712158203125
0.04046630859375
0.0418853759765625
0.0445404052734375
0.0544281005859375
0.0657806396484375
0.0720977783203125
0.0783233642578125
0.0850067138671875
0.092559814453125
0.0975494384765625
0.09906005859375
0.0984649658203125
0.096954345703125
0.09686279296875
0.10235595703125
0.1065216064453125
0.1016693115234375
0.0936126708984375
0.0883941650390625
0.0850067138671875
0.08184814453125
0.07928466796875
0.0768585205078125
0.07672119140625
0.0764007568359375
0.0731048583984375
0.0685272216796875
0.06317138671875
0.0522308349609375
0.0413360595703125
0.030670166015624997
0.0216522216796875
0.013916015625
0.0109405517578125
0.0113983154296875
0.0135955810546875
0.01611328125
0.01812744140625
0.0198211669921875
0.0167083740234375
0.0117645263671875
0.00823974609375
0.00567626953125
0.0034332275390625
-0.0014190673828125
-0.004852294921875
-0.006317138671875
-0.0071868896484375
-0.0093841552734375
-0.0158843994140625
-0.0195465087890625
-0.0193634033203125
-0.0195465087890625
-0.0203704833984375
-0.0175323486328125
-0.0144195556640625
-0.0104827880859375
-0.0070953369140625
-0.005401611328125
-0.0075531005859375
-0.0138702392578125
-0.0186309814453125
-0.0157470703125
-0.0121307373046875
-0.0113067626953125
-0.0122222900390625
-0.0119476318359375
-0.0128631591796875
-0.0139617919921875
-0.0192718505859375
-0.0269622802734375
-0.0350189208984375
-0.0406036376953125
-0.04010009765625
-0.03277587890625
-0.0246734619140625
-0.0188140869140625
-0.01300048828125
0.0022430419921875
0.0287933349609375
0.06536865234375
0.1064300537109375
0.1412200927734375
0.1776123046875
0.2144622802734375
0.24481201171875
0.2574005126953125
0.2530059814453125
0.25323486328125
0.27630615234375
0.3010711669921875
0.33380126953125
0.3727569580078125
0.4131317138671875
0.4690704345703125
0.55242919921875
0.6630706787109375
0.7444610595703125
0.7176361083984375
0.6294708251953125
0.5426788330078125
0.4558868408203125
0.39019775390625
0.36346435546875
0.3957366943359375
0.44549560546875
0.4610137939453125
0.4362030029296875
0.3877716064453125
0.32501220703125
0.26239013671875
0.2144622802734375
0.18365478515625
0.16790771484375
0.1650238037109375
0.1517486572265625
0.11737060546875
0.0718231201171875
0.0258636474609375
-0.0059051513671875
-0.0246734619140625
-0.0399627685546875
-0.0558929443359375
-0.0700836181640625
-0.0850982666015625
-0.0970001220703125
-0.1092681884765625
-0.1208953857421875
-0.1319732666015625
-0.1408538818359375
-0.1490936279296875
-0.1566925048828125
-0.1604461669921875
-0.1591644287109375
-0.1584320068359375
-0.15985107421875
-0.1631011962890625
-0.1663970947265625
-0.1682281494140625
-0.1722564697265625
-0.1746368408203125
-0.1754608154296875
-0.1750946044921875
-0.1753692626953125
-0.1742706298828125
-0.1717987060546875
-0.168731689453125
-0.1644744873046875
-0.1605377197265625
-0.1577911376953125
-0.1544952392578125
-0.154083251953125
-0.1524810791015625
-0.1519317626953125
-0.1520233154296875
-0.1512908935546875
-0.1515655517578125
-0.151153564453125
-0.15106201171875
-0.1533966064453125
-0.1538543701171875
-0.1544036865234375
-0.1555023193359375
-0.1521148681640625
-0.14703369140625
-0.1460723876953125
-0.1442413330078125
-0.1405792236328125
-0.1368255615234375
-0.1359100341796875
-0.1355438232421875
-0.1356353759765625
-0.134490966796875
-0.134857177734375
-0.1358642578125
-0.1378326416015625
-0.1378326416015625
-0.13531494140625
-0.131011962890625
-0.1268463134765625
-0.1230926513671875
-0.1193389892578125
-0.1175079345703125
-0.1175994873046875
-0.1154937744140625
-0.1099090576171875
-0.106658935546875
-0.10528564453125
-0.1030426025390625
-0.09796142578125
-0.09503173828125
-0.0896759033203125
-0.0837249755859375
-0.08349609375
-0.0861968994140625
-0.08843994140625
-0.0869293212890625
-0.084503173828125
-0.0797882080078125
-0.0749359130859375
-0.0699920654296875
-0.0669708251953125
-0.0644073486328125
-0.0612030029296875
-0.0590057373046875
-0.0536041259765625
-0.0515899658203125
-0.0548858642578125
-0.0588226318359375
-0.06175231933593749
-0.06175231933593749
-0.0612030029296875
-0.0642242431640625
-0.0673370361328125
-0.0676116943359375
-0.06463623046875
-0.0615692138671875
-0.0589141845703125
-0.05511474609375
-0.05511474609375
-0.054290771484375
-0.0554351806640625
-0.0579071044921875
-0.059783935546875
-0.0634918212890625
-0.06500244140625
-0.06243896484374999
-0.0578155517578125
-0.0524139404296875
-0.0480194091796875
-0.0445404052734375
-0.0406036376953125
-0.03863525390625
-0.0407867431640625
-0.0416107177734375
-0.0405120849609375
-0.0396881103515625
-0.0390472412109375
-0.0371246337890625
-0.0287933349609375
-0.0204620361328125
-0.0129547119140625
-0.0107574462890625
-0.0092926025390625
-0.0083770751953125
-0.0066375732421875
-0.0041656494140625
-0.0004119873046875
0.0071868896484375
0.0125885009765625
0.0126800537109375
0.0113983154296875
0.012176513671875
0.01300048828125
0.01519775390625
0.0161590576171875
0.0164337158203125
0.0205535888671875
0.0274200439453125
0.0364837646484375
0.0380401611328125
0.0364837646484375
0.0380401611328125
0.0427093505859375
0.0489349365234375
0.04925537109375
0.045684814453125
0.04559326171875
0.0434417724609375
0.0390472412109375
0.0372161865234375
0.0427093505859375
0.0507659912109375
0.0580902099609375
0.0666961669921875
0.0714569091796875
0.0698089599609375
0.06198120117187501
0.05328369140625
0.0482940673828125
0.0415191650390625
0.0351104736328125
0.0352020263671875
0.0362091064453125
0.0348358154296875
0.0344696044921875
0.0373077392578125
0.0412445068359375
0.0410614013671875
0.0373077392578125
0.02911376953125
0.021697998046875
0.021148681640625
0.0244903564453125
0.0246734619140625
0.0273284912109375
0.0256805419921875
0.0229339599609375
0.024078369140625
0.0265960693359375
0.0300750732421875
0.0342864990234375
0.0359344482421875
0.0406494140625
0.0427093505859375
0.0409698486328125
0.0417938232421875
0.04339599609375
0.0445404052734375
0.044769287109375
0.0450897216796875
0.0456390380859375
0.044036865234375
0.0438995361328125
0.0461883544921875
0.0488433837890625
0.0496673583984375
0.0514068603515625
0.0512237548828125
0.0500335693359375
0.0519561767578125
0.0504913330078125
0.0467376708984375
0.0427093505859375
0.0369415283203125
0.0324554443359375
0.0269622802734375
0.0201873779296875
0.0167083740234375
0.014373779296875
0.0116729736328125
0.0083770751953125
0.00531005859375
0.0056304931640625
0.0071868896484375
0.0068206787109375
0.0059051513671875
0.0043487548828125
0.0004119873046875
-0.0046234130859375
-0.0077362060546875
-0.0102996826171875
-0.0142364501953125
-0.0179901123046875
-0.0226593017578125
-0.0246734619140625
-0.0231170654296875
-0.0217437744140625
-0.021331787109375
-0.0209197998046875
-0.0197296142578125
-0.01812744140625
-0.01904296875
-0.020782470703125
-0.0241241455078125
-0.02545166015625
-0.0246734619140625
-0.0210113525390625
-0.0178985595703125
-0.0132293701171875
-0.00860595703125
-0.0069122314453125
-0.0103912353515625
-0.012542724609375
-0.01593017578125
-0.0163421630859375
-0.015335083007812498
-0.0145111083984375
-0.0144195556640625
-0.0113983154296875
-0.007781982421875
-0.004119873046875
-0.0041656494140625
-0.0098419189453125
-0.015609741210937498
-0.0144195556640625
-0.0157012939453125
-0.025543212890625
-0.0270538330078125
-0.03460693359375
-0.0317230224609375
-0.01446533203125
-0.0085601806640625
-0.00860595703125
-0.01593017578125
-0.0202789306640625
-0.014007568359375
-0.0100250244140625
-0.00933837890625
-0.0062713623046875
-0.0085601806640625
-0.008697509765625
-0.0105743408203125
-0.0173492431640625
-0.0199127197265625
-0.0157012939453125
-0.0087432861328125
-0.0076446533203125
-0.0116729736328125
-0.0058135986328125
-0.00787353515625
-0.01336669921875
-0.0140533447265625
-0.0126800537109375
-0.0068206787109375
-0.0050811767578125
0.0002288818359375
-0.0008697509765625
-0.0040740966796875
-0.002288818359375
0.0006866455078125
0.0025177001953125
-0.0017852783203125
-0.0029754638671875
0.0030670166015625
0.00732421875
0.0068206787109375
0.0026092529296875
0.0098419189453125
0.0112152099609375
0.0094757080078125
0.007965087890625
-0.0004119873046875
0.0075531005859375
0.0213775634765625
0.0236663818359375
0.0226593017578125
0.0239410400390625
0.0257720947265625
0.0263214111328125
0.0297088623046875
0.030120849609375
0.03497314453125
0.0436248779296875
0.0496673583984375
0.0546112060546875
0.0569000244140625
0.0534210205078125
0.049896240234375
0.0460968017578125
0.0438995361328125
0.0430755615234375
0.0458221435546875
0.04815673828125
0.0487518310546875
0.0484771728515625
0.0445404052734375
0.04083251953125
0.0405120849609375
0.0387725830078125
0.036529541015625
0.03460693359375
0.0339202880859375
0.027008056640625
0.0212860107421875
0.0188140869140625
0.0172576904296875
0.0165252685546875
0.0170745849609375
0.0188140869140625
0.0205535888671875
0.0238494873046875
0.02838134765625
0.0302581787109375
0.03076171875
0.0307159423828125
0.02838134765625
0.02471923828125
0.02105712890625
0.0187225341796875
0.0167083740234375
0.0173492431640625
0.0178985595703125
0.015609741210937498
0.0194549560546875
0.028106689453125
0.0366668701171875
0.0441741943359375
0.0495758056640625
0.0468292236328125
0.043853759765625
0.04559326171875
0.0480194091796875
0.04815673828125
0.050079345703125
0.0529632568359375
0.0515899658203125
0.0514984130859375
0.0573577880859375
0.0608367919921875
0.0603790283203125
0.0630340576171875
0.0709991455078125
0.0772247314453125
0.0846405029296875
0.09228515625
0.10345458984375
0.114715576171875
0.11956787109375
0.12327575683593751
0.1269378662109375
0.12579345703125
0.12799072265625
0.1350860595703125
0.1326141357421875
0.1193389892578125
0.10272216796875
0.0908660888671875
0.0892181396484375
0.08734130859375
0.085968017578125
0.08367919921875
0.0822601318359375
0.0786895751953125
0.0727386474609375
0.0709075927734375
0.06166076660156251
0.057952880859375
0.0564422607421875
0.0516815185546875
0.0428009033203125
0.0313568115234375
0.0137786865234375
0.0013275146484375
-0.0055389404296875
-0.0034332275390625
0.0022430419921875
0.0015106201171875
-0.0054931640625
-0.0158843994140625
-0.0286102294921875
-0.035888671875
-0.0367584228515625
-0.0357513427734375
-0.0373077392578125
-0.0375823974609375
-0.0382232666015625
-0.03936767578125
-0.0428009033203125
-0.0461883544921875
-0.049163818359375
-0.0532379150390625
-0.0583648681640625
-0.05914306640625
-0.0587310791015625
-0.0593719482421875
-0.059783935546875
-0.0594635009765625
-0.05584716796875
-0.053375244140625
-0.0557098388671875
-0.05548095703125
-0.0510406494140625
-0.0421600341796875
-0.0385894775390625
-0.0387725830078125
-0.0426177978515625
-0.0440826416015625
-0.0411529541015625
-0.0442657470703125
-0.05364990234375
-0.05859375
-0.0629425048828125
-0.0619354248046875
-0.0540618896484375
-0.04559326171875
-0.0354766845703125
-0.02581787109375
-0.0101165771484375
0.0070037841796875
0.030990600585937503
0.066925048828125
0.09613037109375
0.1356353759765625
0.1753692626953125
0.2010040283203125
0.2113494873046875
0.2017364501953125
0.198944091796875
0.225128173828125
0.260650634765625
0.294891357421875
0.33123779296875
0.3620452880859375
0.4176177978515625
0.5073394775390625
0.629150390625
0.74395751953125
0.7521514892578125
0.6835784912109375
0.6003570556640625
0.5123748779296875
0.4455413818359375
0.4185333251953125
0.4470062255859375
0.49974060058593744
0.5294952392578125
0.51947021484375
0.4737396240234375
0.4006805419921875
0.3251495361328125
0.2589569091796875
0.21697998046875
0.1956024169921875
0.1907958984375
0.1786651611328125
0.150970458984375
0.1100921630859375
0.06683349609375
0.03460693359375
0.0089263916015625
-0.0121307373046875
-0.0319061279296875
-0.0525970458984375
-0.0755767822265625
-0.0962677001953125
-0.1107330322265625
-0.1266632080078125
-0.13751220703125
-0.1452484130859375
-0.148040771484375
-0.15087890625
-0.1570587158203125
-0.1653900146484375
-0.1707916259765625
-0.1756439208984375
-0.18145751953125
-0.1807708740234375
-0.1786651611328125
-0.1790771484375
-0.1816864013671875
-0.1845245361328125
-0.1867218017578125
-0.1843414306640625
-0.1801300048828125
-0.1764678955078125
-0.1747283935546875
-0.1728057861328125
-0.173858642578125
-0.1710662841796875
-0.16900634765625
-0.1757354736328125
-0.18109130859375
-0.1795806884765625
-0.1730804443359375
-0.1652069091796875
-0.1654815673828125
-0.1609954833984375
-0.1552276611328125
-0.1495513916015625
-0.1481781005859375
-0.1473541259765625
-0.1432342529296875
-0.1420440673828125
-0.1431884765625
-0.144012451171875
-0.147125244140625
-0.15179443359375
-0.1544952392578125
-0.148956298828125
-0.1363677978515625
-0.1264801025390625
-0.1132965087890625
-0.0970916748046875
-0.0845489501953125
-0.07598876953125
-0.0774078369140625
-0.086334228515625
-0.0965423583984375
-0.10565185546875
-0.1123809814453125
-0.1162261962890625
-0.1191558837890625
-0.1190643310546875
-0.1169586181640625
-0.1110992431640625
-0.1020355224609375
-0.0955352783203125
-0.0926971435546875
-0.0963592529296875
-0.0996551513671875
-0.0988311767578125
-0.0995635986328125
-0.0959014892578125
-0.0919647216796875
-0.093841552734375
-0.09686279296875
-0.1021270751953125
-0.1045989990234375
-0.1056060791015625
-0.108123779296875
-0.1062469482421875
-0.10345458984375
-0.09942626953125
-0.097869873046875
-0.0926971435546875
-0.090087890625
-0.08953857421875
-0.0963592529296875
-0.1019439697265625
-0.1048736572265625
-0.1078948974609375
-0.1087646484375
-0.1055145263671875
-0.1008453369140625
-0.0982818603515625
-0.0986480712890625
-0.098602294921875
-0.0978240966796875
-0.0937957763671875
-0.0897674560546875
-0.0905914306640625
-0.0911865234375
-0.0933837890625
-0.0977325439453125
-0.0964508056640625
-0.0931549072265625
-0.0961761474609375
-0.0973663330078125
-0.0953521728515625
-0.0912322998046875
-0.0904083251953125
-0.0896759033203125
-0.0895843505859375
-0.0854644775390625
-0.0802459716796875
-0.0769500732421875
-0.081756591796875
-0.08770751953125
-0.086334228515625
-0.0863800048828125
-0.0888519287109375
-0.0881195068359375
-0.0846405029296875
-0.07562255859375
-0.0649566650390625
-0.0556182861328125
-0.0443572998046875
-0.0337371826171875
-0.0323638916015625
-0.0314483642578125
-0.0279693603515625
-0.026275634765625
-0.02691650390625
-0.0274200439453125
-0.0330963134765625
-0.0378570556640625
-0.0380859375
-0.0299835205078125
-0.016754150390625
-0.0056304931640625
0.00421142578125
0.010711669921875
0.020782470703125
0.0224761962890625
0.01922607421875
0.0189056396484375
0.022064208984375
0.0258636474609375
0.0268707275390625
0.0283355712890625
0.0275115966796875
0.02838134765625
0.0250396728515625
0.021331787109375
0.0175323486328125
0.01153564453125
0.0093841552734375
0.008148193359375
0.00347900390625
-0.0005950927734375
0.0025177001953125
0.00347900390625
0.0027923583984375
0.0024261474609375
0.0006866455078125
-0.003204345703125
-0.0062713623046875
-0.00457763671875
-0.005035400390625
-0.0060882568359375
-0.0078277587890625
-0.0092010498046875
-0.0128631591796875
-0.0157012939453125
-0.016754150390625
-0.0206451416015625
-0.0239410400390625
-0.0252227783203125
-0.0267791748046875
-0.0276031494140625
-0.0250396728515625
-0.0201873779296875
-0.0194549560546875
-0.0232086181640625
-0.024261474609375
-0.02764892578125
-0.0331878662109375
-0.03680419921875
-0.03533935546875
-0.0349273681640625
-0.03460693359375
-0.0336456298828125
-0.0318145751953125
-0.0352935791015625
-0.0319061279296875
-0.025360107421875
-0.0246734619140625
-0.0239410400390625
-0.021881103515625
-0.0217437744140625
-0.022064208984375
-0.0223846435546875
-0.0241241455078125
-0.02618408203125
-0.0301666259765625
-0.031173706054687503
-0.03460693359375
-0.038909912109375
-0.04193115234375
-0.04083251953125
-0.03387451171875
-0.024444580078125
-0.01922607421875
-0.0145111083984375
-0.0077362060546875
-0.0063629150390625
-0.007781982421875
-0.0089263916015625
-0.00897216796875
-0.0059051513671875
-0.0077362060546875
-0.014007568359375
-0.01263427734375
-0.0123138427734375
-0.016387939453125
-0.0081939697265625
-0.0025634765625
0.00164794921875
0.0018768310546875
-0.0012359619140625
-0.00787353515625
-0.0136871337890625
-0.0150604248046875
-0.0129547119140625
-0.0074615478515625
-0.0010528564453125
-0.0003204345703125
-0.0053558349609375
-0.0109405517578125
-0.0109405517578125
-0.0085601806640625
-0.0043487548828125
-0.0002288818359375
0.003662109375
0.0066375732421875
0.00238037109375
-0.0034332275390625
-0.00567626953125
-0.0022430419921875
0.0005950927734375
0.00311279296875
0.0079193115234375
0.0117645263671875
0.0197296142578125
0.0214691162109375
0.0187225341796875
0.0178070068359375
0.01336669921875
0.00677490234375
-0.0022430419921875
-0.0056304931640625
-0.009246826171875
-0.0106658935546875
-0.0056304931640625
-0.004302978515625
-0.0081939697265625
-0.0079193115234375
0.0043487548828125
0.0079193115234375
0.00897216796875
0.0093841552734375
0.0159759521484375
0.0251312255859375
0.03277587890625
0.0345611572265625
0.0287933349609375
0.0158843994140625
0.0110321044921875
0.0063629150390625
0.0006866455078125
0.0004119873046875
0.00311279296875
0.0054473876953125
0.0124053955078125
0.0176239013671875
0.0204620361328125
0.0252227783203125
0.032135009765625
0.0360260009765625
0.0365753173828125
0.0371246337890625
0.04119873046875
0.0438079833984375
0.04595947265625
0.04962158203125
0.0502166748046875
0.04412841796875
0.04010009765625
0.0358428955078125
0.0331878662109375
0.03204345703125
0.03314208984375
0.0372161865234375
0.03717041015625
0.0369415283203125
0.03973388671875
0.0407867431640625
0.0431671142578125
0.0404205322265625
0.037628173828125
0.0387725830078125
0.0357513427734375
0.0286102294921875
0.0357513427734375
0.0410614013671875
0.0431671142578125
0.0441741943359375
0.04742431640625
0.0510406494140625
0.0517730712890625
0.0510406494140625
0.0537872314453125
0.0586395263671875
0.0593719482421875
0.0623016357421875
0.0627593994140625
0.06170654296874999
0.058135986328125
0.0534210205078125
0.0497589111328125
0.0486602783203125
0.047149658203125
0.04193115234375
0.030990600585937503
0.0212860107421875
0.0206451416015625
0.0248565673828125
0.0319061279296875
0.04412841796875
0.0566253662109375
0.0652313232421875
0.0692596435546875
0.0720062255859375
0.0736541748046875
0.0768585205078125
0.0735626220703125
0.0663299560546875
0.0608367919921875
0.058319091796875
0.05694580078125
0.0545196533203125
0.0505828857421875
0.0471038818359375
0.0400543212890625
0.0330047607421875
0.0330963134765625
0.0410614013671875
0.0426177978515625
0.0457305908203125
0.0452728271484375
0.0551605224609375
0.0553436279296875
0.0471954345703125
0.0474700927734375
0.0510406494140625
0.0531463623046875
0.05767822265625
0.0582733154296875
0.0597381591796875
0.0610198974609375
0.0591888427734375
0.05694580078125
0.0504913330078125
0.0405120849609375
0.031173706054687503
0.03076171875
0.0383148193359375
0.0436248779296875
0.04705810546875
0.052734375
0.0567169189453125
0.0571746826171875
0.0547027587890625
0.05145263671875
0.0498504638671875
0.04998779296875
0.0569915771484375
0.0622100830078125
0.0669708251953125
0.0752105712890625
0.0850067138671875
0.0959014892578125
0.09796142578125
0.0959014892578125
0.0897674560546875
0.0850067138671875
0.0763092041015625
0.06939697265625
0.0679779052734375
0.0698089599609375
0.0670623779296875
0.06646728515625
0.07159423828125
0.0811614990234375
0.09356689453125
0.1024017333984375
0.10858154296875
0.1115570068359375
0.1122894287109375
0.1114654541015625
0.1164093017578125
0.12336730957031251
0.12286376953125
0.1207122802734375
0.12213134765625
0.1273040771484375
0.1347198486328125
0.131927490234375
0.1263427734375
0.1271209716796875
0.1270294189453125
0.1281280517578125
0.12409973144531249
0.117645263671875
0.1108245849609375
0.1005706787109375
0.093475341796875
0.0867462158203125
0.0784149169921875
0.06610107421875
0.052459716796875
0.0427093505859375
0.0347442626953125
0.030120849609375
0.0282440185546875
0.028289794921875
0.0270538330078125
0.0265960693359375
0.0271453857421875
0.03021240234375
0.0313568115234375
0.03094482421875
0.0313568115234375
0.0276031494140625
0.02252197265625
0.0130462646484375
0.0026092529296875
-0.00091552734375
-0.0020599365234375
-0.0024261474609375
-0.007049560546875
-0.01116943359375
-0.0184478759765625
-0.0262298583984375
-0.0319061279296875
-0.0356597900390625
-0.038726806640625
-0.0433502197265625
-0.0493927001953125
-0.0520477294921875
-0.0530548095703125
-0.053192138671875
-0.0454559326171875
-0.0419769287109375
-0.0421600341796875
-0.0456390380859375
-0.0457763671875
-0.0479278564453125
-0.0444488525390625
-0.039642333984375
-0.0341949462890625
-0.034149169921875
-0.0363006591796875
-0.0450897216796875
-0.0563507080078125
-0.0649566650390625
-0.0737457275390625
-0.07305908203125
-0.0666046142578125
-0.0644073486328125
-0.0653228759765625
-0.0502166748046875
-0.02545166015625
0.0083770751953125
0.0523681640625
0.0961761474609375
0.1239166259765625
0.15362548828125
0.1911163330078125
0.21551513671875
0.2089691162109375
0.2000885009765625
0.2126312255859375
0.2368011474609375
0.26348876953125
0.2915496826171875
0.3233184814453125
0.3617706298828125
0.4334564208984375
0.538238525390625
0.66815185546875
0.74871826171875
0.7227630615234375
0.6491546630859375
0.5686798095703125
0.4866485595703125
0.4273223876953125
0.4210052490234375
0.4637603759765625
0.5085296630859375
0.51800537109375
0.4976348876953125
0.453460693359375
0.3888702392578125
0.323089599609375
0.2694854736328125
0.2329559326171875
0.2212371826171875
0.216522216796875
0.2010040283203125
0.16864013671875
0.1190643310546875
0.0681610107421875
0.0263214111328125
-0.00439453125
-0.0315399169921875
-0.058868408203125
-0.0747528076171875
-0.086700439453125
-0.1025848388671875
-0.1154937744140625
-0.1279449462890625
-0.1396636962890625
-0.141448974609375
-0.1402587890625
-0.1392059326171875
-0.14190673828125
-0.147491455078125
-0.1528472900390625
-0.154541015625
-0.1528472900390625
-0.1541290283203125
-0.1591644287109375
-0.1627349853515625
-0.1647491455078125
-0.16571044921875
-0.1659393310546875
-0.1681365966796875
-0.1683197021484375
-0.1695098876953125
-0.1746368408203125
-0.1777496337890625
-0.1765594482421875
-0.1734466552734375
-0.1677703857421875
-0.15911865234375
-0.1490020751953125
-0.1391143798828125
-0.13604736328125
-0.1376495361328125
-0.1384735107421875
-0.141998291015625
-0.1463470458984375
-0.1531219482421875
-0.1565093994140625
-0.1511993408203125
-0.1428680419921875
-0.1344451904296875
-0.1275787353515625
-0.12213134765625
-0.1202545166015625
-0.1201629638671875
-0.12345886230468749
-0.1330718994140625
-0.1330718994140625
-0.140533447265625
-0.15142822265625
-0.1517486572265625
-0.141998291015625
-0.1361846923828125
-0.1330718994140625
-0.1263885498046875
-0.12213134765625
-0.1216278076171875
-0.1165008544921875
-0.107391357421875
-0.105194091796875
-0.1051483154296875
-0.1092681884765625
-0.1116485595703125
-0.1095428466796875
-0.112060546875
-0.116363525390625
-0.114349365234375
-0.1134796142578125
-0.117095947265625
-0.1123809814453125
-0.1073455810546875
-0.1047821044921875
-0.1029510498046875
-0.101898193359375
-0.09210205078125
-0.0882110595703125
-0.088714599609375
-0.09429931640625
-0.098785400390625
-0.0971832275390625
-0.0981903076171875
-0.103729248046875
-0.1110076904296875
-0.1198883056640625
-0.1162261962890625
-0.1100921630859375
-0.1087188720703125
-0.1083526611328125
-0.1110076904296875
-0.1178741455078125
-0.1293182373046875
-0.1286773681640625
-0.1295928955078125
-0.12835693359375
-0.131927490234375
-0.1330718994140625
-0.1290435791015625
-0.1219940185546875
-0.1165924072265625
-0.1073455810546875
-0.104095458984375
-0.10968017578125
-0.1107330322265625
-0.1100006103515625
-0.10986328125
-0.10858154296875
-0.1069793701171875
-0.1057891845703125
-0.1045989990234375
-0.1067962646484375
-0.1050567626953125
-0.1030426025390625
-0.0975494384765625
-0.095855712890625
-0.0922393798828125
-0.0841827392578125
-0.08404541015625
-0.0904998779296875
-0.0889434814453125
-0.0839080810546875
-0.0798797607421875
-0.07745361328125
-0.0759429931640625
-0.0730133056640625
-0.0720977783203125
-0.06317138671875
-0.0619354248046875
-0.0637664794921875
-0.0559844970703125
-0.04779052734375
-0.0407867431640625
-0.0326385498046875
-0.02435302734375
-0.015518188476562498
-0.00823974609375
-0.0048065185546875
-0.0022430419921875
0.0022430419921875
0.00750732421875
0.0136871337890625
0.0127716064453125
0.010894775390625
0.0121307373046875
0.0125885009765625
0.0140533447265625
0.01519775390625
0.0197296142578125
0.0249481201171875
0.025360107421875
0.0211944580078125
0.0170745849609375
0.0148773193359375
0.0133209228515625
0.0232086181640625
0.0264129638671875
0.0222015380859375
0.02032470703125
0.0186309814453125
0.02691650390625
0.0414276123046875
0.0434417724609375
0.0382232666015625
0.0342864990234375
0.02325439453125
0.0187225341796875
0.01446533203125
0.0006866455078125
0.0017852783203125
0.003387451171875
0.0002288818359375
-0.005401611328125
-0.0076446533203125
-0.0061798095703125
-0.0037078857421875
0.0066375732421875
0.0104827880859375
0.01483154296875
0.0118560791015625
0.0169830322265625
0.0094757080078125
0.00604248046875
0.00146484375
-0.0006866455078125
-0.0022430419921875
-0.001373291015625
-0.0018768310546875
0.002105712890625
-0.00457763671875
-0.0161590576171875
-0.0128631591796875
-0.005126953125
-0.0015106201171875
-0.0091552734375
-0.0072784423828125
0.0005950927734375
0.0065460205078125
0.0027923583984375
-0.0010986328125
0.0018768310546875
0.01025390625
0.0170745849609375
0.017486572265625
0.018035888671875
0.0158843994140625
0.0098419189453125
0.003570556640625
0.000274658203125
-0.0047149658203125
-0.0114898681640625
-0.0164337158203125
-0.0182647705078125
-0.0162506103515625
-0.0091094970703125
-0.005950927734375
-0.0072784423828125
-0.00604248046875
-0.0059051513671875
-0.00714111328125
-0.0093841552734375
-0.0131378173828125
-0.0149688720703125
-0.0142364501953125
-0.0118560791015625
-0.0138702392578125
-0.01446533203125
-0.0151519775390625
-0.0168914794921875
-0.0165252685546875
-0.0147857666015625
-0.0122222900390625
-0.0080108642578125
-0.0100250244140625
-0.015335083007812498
-0.0211029052734375
-0.0244903564453125
-0.0248565673828125
-0.02288818359375
-0.0217437744140625
-0.0204620361328125
-0.0162506103515625
-0.0122222900390625
-0.01483154296875
-0.0143280029296875
-0.00970458984375
-0.0050811767578125
-0.0061798095703125
-0.0138702392578125
-0.0202789306640625
-0.0241241455078125
-0.02490234375
-0.0266876220703125
-0.02801513671875
-0.0239410400390625
-0.0186309814453125
-0.01629638671875
-0.0072784423828125
4.57763671875e-05
0.0056304931640625
0.0053558349609375
0.0069122314453125
0.000732421875
-0.0063629150390625
-0.015518188476562498
-0.0211944580078125
-0.0200042724609375
-0.022064208984375
-0.0222015380859375
-0.0190887451171875
-0.0135955810546875
-0.0059051513671875
-0.0057220458984375
-0.0081939697265625
-0.0048980712890625
-0.0097503662109375
-0.0135955810546875
-0.0191802978515625
-0.0212860107421875
-0.0159759521484375
-0.0135040283203125
-0.014373779296875
-0.0136871337890625
-0.0095672607421875
-0.00201416015625
0.0032501220703125
0.0104827880859375
0.018768310546875
0.0245819091796875
0.0270538330078125
0.028656005859375
0.02197265625
0.0167083740234375
0.01080322265625
0.0050811767578125
0.001556396484375
0.002197265625
0.0012359619140625
0.0003204345703125
0.0084686279296875
0.016571044921875
0.0186767578125
0.0143280029296875
0.0070037841796875
4.57763671875e-05
-0.00604248046875
-0.011810302734375
-0.01409912109375
-0.0128631591796875
-0.0165252685546875
-0.0157928466796875
-0.0143280029296875
-0.0133209228515625
-0.0029754638671875
0.0018768310546875
-0.00421142578125
-0.0113067626953125
-0.0109405517578125
-0.0143280029296875
-0.0084228515625
-0.0020599365234375
-0.0015106201171875
-0.003753662109375
-0.0091552734375
-0.0084686279296875
-0.0033416748046875
-0.0051727294921875
-0.0073699951171875
-0.0069580078125
0.0005950927734375
0.006317138671875
0.0082855224609375
0.0080108642578125
0.0033416748046875
-0.0014190673828125
-0.0053558349609375
-0.00567626953125
-0.0077362060546875
-0.0072784423828125
-0.002838134765625
0.0012359619140625
-0.0040740966796875
-0.0017852783203125
0.0029754638671875
-0.00238037109375
-0.0066375732421875
-0.0048980712890625
-0.003570556640625
-0.0029754638671875
-0.0012359619140625
-0.0007781982421875
0.0042572021484375
0.0118560791015625
0.0121307373046875
0.01812744140625
0.0211029052734375
0.0197296142578125
0.0139617919921875
0.0148773193359375
0.0151519775390625
0.0107574462890625
0.0021514892578125
-0.0021514892578125
-0.0059967041015625
-0.0037078857421875
0.001373291015625
0.0052642822265625
0.01080322265625
0.0176239013671875
0.02618408203125
0.0294342041015625
0.0359344482421875
0.0363006591796875
0.0337371826171875
0.0339202880859375
0.0366668701171875
0.0373077392578125
0.03680419921875
0.041748046875
0.0483856201171875
0.0430755615234375
0.0387725830078125
0.0359344482421875
0.0359344482421875
0.0338287353515625
0.0280609130859375
0.02618408203125
0.0275115966796875
0.0255889892578125
0.0189056396484375
0.0170745849609375
0.0204620361328125
0.0212860107421875
0.0187225341796875
0.0200042724609375
0.0187225341796875
0.0276031494140625
0.03240966796875
0.0301666259765625
0.0251312255859375
0.0258636474609375
0.026458740234375
0.0214691162109375
0.0101165771484375
0.01007080078125
0.0102081298828125
0.0106658935546875
0.0127716064453125
0.0097503662109375
0.00897216796875
0.0130462646484375
0.0136871337890625
0.0102996826171875
0.0073699951171875
0.0134124755859375
0.0186309814453125
0.0249481201171875
0.0305328369140625
0.0326385498046875
0.0374908447265625
0.0400543212890625
0.0373077392578125
0.0373077392578125
0.0384979248046875
0.0438079833984375
0.0534210205078125
0.0570831298828125
0.0590057373046875
0.0589141845703125
0.0558013916015625
0.0482025146484375
0.0376739501953125
0.03167724609375
0.0339202880859375
0.03863525390625
0.046966552734375
0.05914306640625
0.0769500732421875
0.0893096923828125
0.09759521484375
0.1011199951171875
0.10015869140625
0.0973663330078125
0.1071624755859375
0.121307373046875
0.1276702880859375
0.1340789794921875
0.137237548828125
0.1324310302734375
0.1317901611328125
0.1335296630859375
0.1292266845703125
0.12474060058593751
0.11810302734375
0.1051483154296875
0.0983734130859375
0.09759521484375
0.1024932861328125
0.1093597412109375
0.1154937744140625
0.0984649658203125
0.0850067138671875
0.0728302001953125
0.0542449951171875
0.0347442626953125
0.0229339599609375
0.0220184326171875
0.0201416015625
0.02362060546875
0.0322723388671875
0.03826904296875
0.0396881103515625
0.038543701171875
0.0399627685546875
0.0392303466796875
0.0380859375
0.03240966796875
0.024261474609375
0.0164337158203125
0.0097503662109375
0.0035247802734375
0.0020599365234375
-0.0011444091796875
-0.0050811767578125
-0.0106658935546875
-0.0129547119140625
-0.01593017578125
-0.0137786865234375
-0.0104827880859375
-0.0093841552734375
-0.01153564453125
-0.0148773193359375
-0.016937255859375
-0.0147857666015625
-0.01025390625
-0.0168914794921875
-0.0208282470703125
-0.0210113525390625
-0.0197296142578125
-0.0230712890625
-0.0224761962890625
-0.0195465087890625
-0.01300048828125
-0.0124969482421875
-0.01007080078125
-0.0109405517578125
-0.010528564453125
-0.0124969482421875
-0.0216522216796875
-0.02911376953125
-0.0365753173828125
-0.0362091064453125
-0.03314208984375
-0.0216064453125
-0.0062713623046875
0.02984619140625
0.0758514404296875
0.1163177490234375
0.1403045654296875
0.1702423095703125
0.208465576171875
0.2362518310546875
0.2323150634765625
0.2160186767578125
0.2039337158203125
0.2118988037109375
0.2291107177734375
0.2512664794921875
0.2718658447265625
0.29461669921875
0.3441009521484375
0.4293365478515625
0.5511474609375
0.6680145263671875
0.6818389892578125
0.6147308349609375
0.5346221923828125
0.4517669677734375
0.3863067626953125
0.3600311279296875
0.404571533203125
0.4836273193359375
0.5345306396484375
0.5499114990234375
0.51763916015625
0.4630279541015625
0.3993988037109375
0.3415374755859375
0.2919158935546875
0.26495361328125
0.2602386474609375
0.2508087158203125
0.22686767578125
0.1797637939453125
0.1262054443359375
0.0882110595703125
0.0541534423828125
0.025177001953125
-0.0092010498046875
-0.03643798828125
-0.0702667236328125
-0.0922393798828125
-0.1028594970703125
-0.1116485595703125
-0.1192474365234375
-0.12277221679687499
-0.1277618408203125
-0.1354522705078125
-0.1472625732421875
-0.1515655517578125
-0.149688720703125
-0.1522979736328125
-0.15399169921875
-0.1553192138671875
-0.1574249267578125
-0.1563262939453125
-0.1579742431640625
-0.1609954833984375
-0.169464111328125
-0.1693267822265625
-0.167083740234375
-0.1674957275390625
-0.1662139892578125
-0.16204833984375
-0.15838623046875
-0.1553192138671875
-0.1563262939453125
-0.1575164794921875
-0.1592559814453125
-0.1555023193359375
-0.1611785888671875
-0.1687774658203125
-0.17633056640625
-0.1790313720703125
-0.16900634765625
-0.1668548583984375
-0.16680908203125
-0.1596221923828125
-0.1491851806640625
-0.1363677978515625
-0.1299591064453125
-0.1293182373046875
-0.1338958740234375
-0.1447906494140625
-0.15948486328125
-0.16644287109375
-0.1596221923828125
-0.1527557373046875
-0.1475372314453125
-0.14447021484375
-0.1565093994140625
-0.16204833984375
-0.1607208251953125
-0.159393310546875
-0.1660308837890625
-0.1693267822265625
-0.1676788330078125
-0.1592559814453125
-0.1459808349609375
-0.13348388671875
-0.1224517822265625
-0.1170501708984375
-0.116455078125
-0.1169586181640625
-0.126800537109375
-0.1367340087890625
-0.1374664306640625
-0.1301422119140625
-0.12208557128906249
-0.1161346435546875
-0.1113739013671875
-0.11041259765625
-0.1106414794921875
-0.1096343994140625
-0.1115570068359375
-0.1127471923828125
-0.11224365234375
-0.1061553955078125
-0.1050567626953125
-0.10601806640625
-0.1132965087890625
-0.1180572509765625
-0.11846923828125
-0.1183319091796875
-0.1175079345703125
-0.1160888671875
-0.113800048828125
-0.1136627197265625
-0.1183319091796875
-0.12272644042968749
-0.1202545166015625
-0.116455078125
-0.1185150146484375
-0.1219940185546875
-0.1276702880859375
-0.1343536376953125
-0.1400299072265625
-0.1413116455078125
-0.1414947509765625
-0.1422271728515625
-0.144287109375
-0.14483642578125
-0.1457977294921875
-0.1440582275390625
-0.1403045654296875
-0.1444244384765625
-0.1503753662109375
-0.1542205810546875
-0.1572418212890625
-0.15289306640625
-0.1477203369140625
-0.1477203369140625
-0.1526641845703125
-0.15472412109375
-0.1491851806640625
-0.1460723876953125
-0.1411285400390625
-0.1378326416015625
-0.1347198486328125
-0.1281280517578125
-0.1184234619140625
-0.11663818359375
-0.1191558837890625
-0.1102752685546875
-0.1084442138671875
-0.1071624755859375
-0.1003875732421875
-0.095123291015625
-0.0803375244140625
-0.0715484619140625
-0.0668792724609375
-0.0673370361328125
-0.06239318847656251
-0.0583648681640625
-0.0555267333984375
-0.04962158203125
-0.0446319580078125
-0.0352020263671875
-0.0315399169921875
-0.031173706054687503
-0.02178955078125
-0.0088348388671875
-0.0032501220703125
-0.0011444091796875
-0.0018768310546875
0.0020599365234375
0.0175323486328125
0.0286102294921875
0.0376739501953125
0.04559326171875
0.0456390380859375
0.0403289794921875
0.04083251953125
0.0383148193359375
0.0352020263671875
0.0334625244140625
0.02801513671875
0.0267791748046875
0.0312652587890625
0.0394134521484375
0.0462799072265625
0.0506744384765625
0.054290771484375
0.055023193359375
0.0486602783203125
0.0434417724609375
0.04119873046875
0.0397796630859375
0.0346527099609375
0.0244903564453125
0.0101165771484375
0.0065460205078125
0.0099334716796875
0.0117645263671875
0.012176513671875
0.0128631591796875
0.0176239013671875
0.0192718505859375
0.0192718505859375
0.0163421630859375
0.0114898681640625
0.0124969482421875
0.015518188476562498
0.0203704833984375
0.0249481201171875
0.0262298583984375
0.0237579345703125
0.02178955078125
0.0178985595703125
0.0178985595703125
0.01995849609375
0.0220184326171875
0.02069091796875
0.0191802978515625
0.01593017578125
0.007781982421875
0.007049560546875
0.0086517333984375
0.00714111328125
0.00677490234375
0.0040740966796875
0.010894775390625
0.0186309814453125
0.0135955810546875
0.0132293701171875
0.0127716064453125
0.0113983154296875
0.0032958984375
-0.0081939697265625
-0.0173492431640625
-0.0167083740234375
-0.0092010498046875
-0.0062713623046875
-0.0055389404296875
-0.0088348388671875
-0.01593017578125
-0.0159759521484375
-0.016845703125
-0.0078277587890625
-0.0144195556640625
-0.02764892578125
-0.0319061279296875
-0.0284271240234375
-0.028289794921875
-0.0283355712890625
-0.0325469970703125
-0.0362091064453125
-0.0263214111328125
-0.0197296142578125
-0.018402099609375
-0.016387939453125
-0.0123138427734375
-0.0177154541015625
-0.0200958251953125
-0.01446533203125
-0.0172576904296875
-0.020599365234375
-0.027191162109375
-0.0215606689453125
-0.015655517578125
-0.01025390625
-0.0110321044921875
-0.0124969482421875
-0.0077362060546875
-0.003570556640625
0.0016937255859375
0.010528564453125
0.0115814208984375
0.0121307373046875
0.0099334716796875
0.0079193115234375
0.0117645263671875
0.0113067626953125
0.0046234130859375
-0.0033416748046875
-0.0010528564453125
0.0055389404296875
0.0082855224609375
0.0135955810546875
0.01483154296875
0.015106201171875
0.01446533203125
0.0167999267578125
0.0122222900390625
0.0069122314453125
0.0005950927734375
-0.0064544677734375
-0.00457763671875
-0.0074615478515625
-0.00970458984375
-0.0085601806640625
-0.00146484375
0.002105712890625
-0.0002288818359375
0.00421142578125
0.0116729736328125
0.0164337158203125
0.0170745849609375
0.0159759521484375
0.0117645263671875
0.00714111328125
0.0006866455078125
-0.0114898681640625
-0.0232086181640625
-0.0297088623046875
-0.0305328369140625
-0.0348358154296875
-0.0431671142578125
-0.0503997802734375
-0.05877685546875
-0.061431884765625
-0.0573577880859375
-0.0581817626953125
-0.06129455566406251
-0.06060791015625
-0.0626220703125
-0.0627593994140625
-0.0571746826171875
-0.0519561767578125
-0.044036865234375
-0.0363006591796875
-0.0315399169921875
-0.0276031494140625
-0.0233917236328125
-0.0200958251953125
-0.0168914794921875
-0.0132293701171875
-0.0117645263671875
-0.0073699951171875
0.0011444091796875
-0.0011444091796875
-0.0074615478515625
-0.0070953369140625
0.0038909912109375
0.0127716064453125
0.0135955810546875
0.02252197265625
0.0315399169921875
0.02069091796875
0.0157012939453125
0.017120361328125
0.02215576171875
0.0251312255859375
0.0233917236328125
0.024261474609375
0.026824951171875
0.0301666259765625
0.026824951171875
0.015426635742187498
0.0177154541015625
0.0144195556640625
0.0116729736328125
0.0206451416015625
0.0315399169921875
0.0374908447265625
0.0380401611328125
0.041473388671875
0.0514068603515625
0.0584564208984375
0.0540618896484375
0.0435333251953125
0.0368499755859375
0.034149169921875
0.0339202880859375
0.0413360595703125
0.0505828857421875
0.0584564208984375
0.0619354248046875
0.0609283447265625
0.0555267333984375
0.0482025146484375
0.0449066162109375
0.0417022705078125
0.0397796630859375
0.0464630126953125
0.060699462890625
0.0675201416015625
0.0546112060546875
0.0406036376953125
0.0405120849609375
0.0476531982421875
0.0556182861328125
0.0659637451171875
0.0740203857421875
0.0779571533203125
0.0773162841796875
0.0738372802734375
0.06756591796875
0.045318603515625
0.0314483642578125
0.0331878662109375
0.0398712158203125
0.0339202880859375
0.0291595458984375
0.03021240234375
0.033599853515625
0.0368499755859375
0.0373077392578125
0.032135009765625
0.0237579345703125
0.0122222900390625
0.0112152099609375
0.01995849609375
0.0275115966796875
0.0361175537109375
0.0360260009765625
0.0311279296875
0.0278778076171875
0.0204620361328125
0.01666259765625
0.017120361328125
0.01702880859375
0.0190887451171875
0.02069091796875
0.01849365234375
0.0222930908203125
0.0299835205078125
0.03717041015625
0.04266357421875
0.0434417724609375
0.0460968017578125
0.049163818359375
0.0552520751953125
0.06060791015625
0.0630340576171875
0.0622100830078125
0.0545196533203125
0.0423431396484375
0.038726806640625
0.04156494140625
0.0456390380859375
0.0513153076171875
0.06170654296874999
0.0720977783203125
0.0871124267578125
0.098236083984375
0.10235595703125
0.1106414794921875
0.12286376953125
0.1310577392578125
0.1306915283203125
0.1237335205078125
0.1237335205078125
0.1336212158203125
0.1383819580078125
0.1457061767578125
0.161590576171875
0.1688690185546875
0.1629180908203125
0.1530303955078125
0.1468048095703125
0.14556884765625
0.14996337890625
0.1511077880859375
0.132659912109375
0.10968017578125
0.0892181396484375
0.0861053466796875
0.0842742919921875
0.0860137939453125
0.081939697265625
0.0763092041015625
0.079010009765625
0.0842742919921875
0.08148193359375
0.0850067138671875
0.0851898193359375
0.0820770263671875
0.07708740234375
0.0666961669921875
0.05767822265625
0.0570831298828125
0.05072021484375
0.0478363037109375
0.0471954345703125
0.0469207763671875
0.043670654296875
0.0428009033203125
0.0386810302734375
0.0329132080078125
0.0234832763671875
0.0126800537109375
-0.0001373291015625
-0.0067291259765625
-0.0088348388671875
-0.01263427734375
-0.019134521484375
-0.0182647705078125
-0.0137786865234375
-0.0113983154296875
-0.0206451416015625
-0.0296630859375
-0.0260467529296875
-0.0209197998046875
-0.02197265625
-0.01483154296875
-0.0082855224609375
-0.0160675048828125
-0.0228424072265625
-0.0250396728515625
-0.0223846435546875
-0.0213775634765625
-0.020050048828125
-0.0143280029296875
-0.01849365234375
-0.02581787109375
-0.0235748291015625
-0.0139617919921875
-0.0092010498046875
-0.0047149658203125
0.0113983154296875
0.0419769287109375
0.0830841064453125
0.1206207275390625
0.1449737548828125
0.17340087890625
0.1969757080078125
0.210296630859375
0.20269775390625
0.17962646484375
0.1665802001953125
0.17120361328125
0.1794891357421875
0.1934051513671875
0.2152862548828125
0.2362518310546875
0.279693603515625
0.3740386962890625
0.5061492919921875
0.6053924560546875
0.606536865234375
0.5511016845703125
0.4949798583984375
0.4385833740234375
0.3963775634765625
0.3957366943359375
0.4606475830078125
0.5499114990234375
0.6099700927734375
0.6226043701171875
0.5935821533203125
0.5376434326171875
0.4763946533203125
0.4239349365234375
0.3866729736328125
0.3699188232421875
0.3655242919921875
0.35211181640625
0.3206634521484375
0.2667388916015625
0.2009124755859375
0.1416778564453125
0.09100341796875
0.0441741943359375
0.0022430419921875
-0.03094482421875
-0.0571746826171875
-0.0780487060546875
-0.0958099365234375
-0.1129302978515625
-0.1283111572265625
-0.1385650634765625
-0.1455230712890625
-0.1511077880859375
-0.1566925048828125
-0.1636962890625
-0.16973876953125
-0.17193603515625
-0.1713409423828125
-0.1704254150390625
-0.1726226806640625
-0.1753692626953125
-0.172576904296875
-0.171844482421875
-0.176971435546875
-0.1818695068359375
-0.1863555908203125
-0.1839752197265625
-0.1818695068359375
-0.1801300048828125
-0.1822357177734375
-0.1831512451171875
-0.1878204345703125
-0.1863555908203125
-0.1846160888671875
-0.1817779541015625
-0.1790313720703125
-0.1754608154296875
-0.17138671875
-0.1710662841796875
-0.1696014404296875
-0.165435791015625
-0.1605377197265625
-0.1588897705078125
-0.1648406982421875
-0.171844482421875
-0.1689605712890625
-0.169281005859375
-0.1674957275390625
-0.1618194580078125
-0.161407470703125
-0.1601715087890625
-0.16571044921875
-0.1703338623046875
-0.1740875244140625
-0.1767425537109375
-0.1774749755859375
-0.178253173828125
-0.17706298828125
-0.1728057861328125
-0.1699676513671875
-0.1692352294921875
-0.16845703125
-0.1660308837890625
-0.1600799560546875
-0.1520233154296875
-0.1374664306640625
-0.1261138916015625
-0.1258392333984375
-0.1283111572265625
-0.135772705078125
-0.1398468017578125
-0.1397552490234375
-0.1406707763671875
-0.1439666748046875
-0.1508331298828125
-0.1548614501953125
-0.1543121337890625
-0.1534881591796875
-0.1547698974609375
-0.1554107666015625
-0.1590728759765625
-0.1637420654296875
-0.1633758544921875
-0.1618194580078125
-0.1611785888671875
-0.15985107421875
-0.15985107421875
-0.1627349853515625
-0.1648406982421875
-0.1685943603515625
-0.173583984375
-0.1760101318359375
-0.1743621826171875
-0.1729888916015625
-0.17340087890625
-0.175140380859375
-0.1803131103515625
-0.1832427978515625
-0.1861724853515625
-0.1926727294921875
-0.19610595703125
-0.198028564453125
-0.198028564453125
-0.1973419189453125
-0.19610595703125
-0.1985321044921875
-0.20050048828125
-0.2003631591796875
-0.2015533447265625
-0.203155517578125
-0.20196533203125
-0.1989898681640625
-0.2048492431640625
-0.2079620361328125
-0.2077789306640625
-0.2073211669921875
-0.2025604248046875
-0.19500732421875
-0.18695068359375
-0.1809539794921875
-0.1824188232421875
-0.1877288818359375
-0.1912078857421875
-0.18804931640625
-0.18255615234375
-0.1801300048828125
-0.1799468994140625
-0.1750946044921875
-0.1717529296875
-0.1709747314453125
-0.1702423095703125
-0.1706085205078125
-0.1699676513671875
-0.1651153564453125
-0.1574249267578125
-0.1481781005859375
-0.1395721435546875
-0.13348388671875
-0.1266632080078125
-0.1218109130859375
-0.115631103515625
-0.1066131591796875
-0.1025848388671875
-0.104827880859375
-0.1081695556640625
-0.1067047119140625
-0.099700927734375
-0.0926055908203125
-0.0848236083984375
-0.0766754150390625
-0.0721893310546875
-0.0697174072265625
-0.0693511962890625
-0.0677032470703125
-0.0633087158203125
-0.0600128173828125
-0.0606536865234375
-0.06317138671875
-0.0638580322265625
-0.0642242431640625
-0.0659637451171875
-0.0628509521484375
-0.0543365478515625
-0.0446319580078125
-0.038543701171875
-0.0429840087890625
-0.0495758056640625
-0.0531463623046875
-0.0581817626953125
-0.0623016357421875
-0.0644073486328125
-0.0646820068359375
-0.064544677734375
-0.0666961669921875
-0.0670623779296875
-0.0632171630859375
-0.0593719482421875
-0.0573577880859375
-0.0574493408203125
-0.0578155517578125
-0.0582275390625
-0.0579986572265625
-0.0590057373046875
-0.06129455566406251
-0.0614776611328125
-0.0627593994140625
-0.0644989013671875
-0.06829833984375
-0.06866455078125
-0.0644989013671875
-0.06239318847656251
-0.0623016357421875
-0.0644073486328125
-0.0677947998046875
-0.0750274658203125
-0.0816192626953125
-0.08258056640625
-0.08148193359375
-0.0791015625
-0.0761260986328125
-0.0801544189453125
