ecg
0.0081024169921875
0.01116943359375
0.0134124755859375
0.0163421630859375
0.01849365234375
0.0211944580078125
0.0260009765625
0.0291595458984375
0.0271453857421875
0.0205535888671875
0.01593017578125
0.0130462646484375
0.0141448974609375
0.0181732177734375
0.0206451416015625
0.0212860107421875
0.02032470703125
0.0214691162109375
0.023529052734375
0.02471923828125
0.028472900390625
0.03204345703125
0.03497314453125
0.0319061279296875
0.029571533203125
0.0291595458984375
0.027557373046875
0.0262298583984375
0.0218353271484375
0.0227508544921875
0.0226593017578125
0.021148681640625
0.0222930908203125
0.0202789306640625
0.01922607421875
0.0186309814453125
0.0168914794921875
0.01739501953125
0.0223846435546875
0.0260009765625
0.0284271240234375
0.028472900390625
0.0255889892578125
0.02655029296875
0.02947998046875
0.031173706054687503
0.0321807861328125
0.0353851318359375
0.0351104736328125
0.0348358154296875
0.0393218994140625
0.03680419921875
0.0297088623046875
0.0257720947265625
0.0233917236328125
0.02032470703125
0.0214691162109375
0.0212860107421875
0.0205535888671875
0.023712158203125
0.0289764404296875
0.0341033935546875
0.0388641357421875
0.042205810546875
0.0425262451171875
0.04119873046875
0.0412445068359375
0.0403289794921875
0.0396881103515625
0.0358428955078125
0.030807495117187503
0.0296173095703125
0.0293426513671875
0.0274658203125
0.0285186767578125
0.0302581787109375
0.0303955078125
0.0310821533203125
0.0354766845703125
0.043487548828125
0.04669189453125
0.0467376708984375
0.0457305908203125
0.0428009033203125
0.03900146484375
0.03753662109375
0.03497314453125
0.03076171875
0.0296173095703125
0.0340118408203125
0.0381317138671875
0.03643798828125
0.0329132080078125
0.0324554443359375
0.0328216552734375
0.0330047607421875
0.0352020263671875
0.0397796630859375
0.0468292236328125
0.05548095703125
0.0637664794921875
0.0690765380859375
0.06903076171875
0.0637664794921875
0.06138610839843749
0.0622100830078125
0.0628509521484375
0.0633087158203125
0.0635833740234375
0.0643157958984375
0.0686187744140625
0.0698089599609375
0.0706329345703125
0.0772705078125
0.0888519287109375
0.0983734130859375
0.10308837890625
0.1073455810546875
0.1171417236328125
0.13421630859375
0.1497344970703125
0.1617279052734375
0.1734466552734375
0.1826934814453125
0.1893768310546875
0.1962432861328125
0.20526123046875
0.2160186767578125
0.2270050048828125
0.2346038818359375
0.24531555175781253
0.2592315673828125
0.26531982421875
0.25396728515625
0.2309417724609375
0.2095184326171875
0.1991729736328125
0.1937255859375
0.1879119873046875
0.18072509765625
0.1745452880859375
0.1641998291015625
0.14959716796875
0.1289520263671875
0.1073455810546875
0.0863800048828125
0.0702667236328125
0.0580902099609375
0.0457305908203125
0.0336456298828125
0.0294342041015625
0.0296173095703125
0.0292510986328125
0.0255889892578125
0.0218353271484375
0.0186309814453125
0.0142364501953125
0.0075531005859375
0.003570556640625
0.00457763671875
0.00604248046875
0.0059051513671875
0.0059051513671875
0.001556396484375
-0.004486083984375
-0.0085601806640625
-0.009246826171875
-0.0108489990234375
-0.01629638671875
-0.0248565673828125
-0.0333709716796875
-0.0418853759765625
-0.0507659912109375
-0.0603790283203125
-0.0691680908203125
-0.0734710693359375
-0.074432373046875
-0.077911376953125
-0.0854644775390625
-0.087066650390625
-0.0866546630859375
-0.0861968994140625
-0.0891265869140625
-0.0946197509765625
-0.0990142822265625
-0.1049652099609375
-0.1121978759765625
-0.1146697998046875
-0.1077117919921875
-0.0997467041015625
-0.0953521728515625
-0.0807037353515625
-0.0525054931640625
-0.0161590576171875
0.0264129638671875
0.06793212890625
0.1078948974609375
0.1491851806640625
0.1844329833984375
0.2001800537109375
0.1922149658203125
0.179534912109375
0.1826019287109375
0.1970672607421875
0.2164764404296875
0.2338714599609375
0.24961853027343753
0.2783660888671875
0.3369598388671875
0.4213714599609375
0.5459747314453125
0.6678314208984375
0.6863250732421875
0.6143646240234375
0.5200653076171875
0.4298858642578125
0.3567352294921875
0.3314666748046875
0.364288330078125
0.4195404052734375
0.4550628662109375
0.4571685791015625
0.4248046875
0.3668975830078125
0.3030853271484375
0.2461395263671875
0.2087860107421875
0.1842498779296875
0.16424560546875
0.1350860595703125
0.0959014892578125
0.0458221435546875
-0.0066375732421875
-0.04815673828125
-0.083221435546875
-0.11260986328125
-0.1383819580078125
-0.162506103515625
-0.1788482666015625
-0.1916656494140625
-0.2063140869140625
-0.2186737060546875
-0.2278289794921875
-0.2370758056640625
-0.2491607666015625
-0.2574005126953125
-0.2606964111328125
-0.2671051025390625
-0.272735595703125
-0.2703094482421875
-0.2660064697265625
-0.26055908203125
-0.2575836181640625
-0.2614288330078125
-0.2654571533203125
-0.2649078369140625
-0.2692108154296875
-0.27923583984375
-0.2933349609375
-0.3050079345703125
-0.3072967529296875
-0.3030853271484375
-0.29534912109375
-0.2845458984375
-0.2854156494140625
-0.2809295654296875
-0.2713623046875
-0.2669677734375
-0.2592315673828125
-0.24824523925781247
-0.235107421875
-0.2260894775390625
-0.2216949462890625
-0.2178955078125
-0.2190399169921875
-0.22869873046875
-0.2335968017578125
-0.2341461181640625
-0.2292938232421875
-0.22979736328125
-0.2294769287109375
-0.2240753173828125
-0.2178497314453125
-0.2081451416015625
-0.1988983154296875
-0.1908416748046875
-0.1936798095703125
-0.1891021728515625
-0.1728057861328125
-0.1523895263671875
-0.1402130126953125
-0.1387939453125
-0.143829345703125
-0.140899658203125
-0.137054443359375
-0.1350860595703125
-0.1342620849609375
-0.1436004638671875
-0.148223876953125
-0.1495513916015625
-0.1431884765625
-0.1371002197265625
-0.137420654296875
-0.1316986083984375
-0.131195068359375
-0.1309661865234375
-0.1361846923828125
-0.139801025390625
-0.1438751220703125
-0.140167236328125
-0.1330718994140625
-0.1304168701171875
-0.1288604736328125
-0.1216278076171875
-0.1143951416015625
-0.113983154296875
-0.118560791015625
-0.1251983642578125
-0.1360015869140625
-0.145111083984375
-0.1531219482421875
-0.15069580078125
-0.1477203369140625
-0.14337158203125
-0.139801025390625
-0.1340789794921875
-0.12419128417968749
-0.12327575683593751
-0.12286376953125
-0.1157684326171875
-0.1218109130859375
-0.1298675537109375
-0.1415863037109375
-0.1523895263671875
-0.1511993408203125
-0.1473541259765625
-0.150238037109375
-0.1555938720703125
-0.1625518798828125
-0.167266845703125
-0.1714324951171875
-0.1714324951171875
-0.166717529296875
-0.1588897705078125
-0.15216064453125
-0.147125244140625
-0.13604736328125
-0.127716064453125
-0.1230926513671875
-0.1258392333984375
-0.13092041015625
-0.1369171142578125
-0.1392059326171875
-0.1434173583984375
-0.1464385986328125
-0.1543121337890625
-0.1625518798828125
-0.1656646728515625
-0.1732177734375
-0.1764678955078125
-0.17449951171875
-0.1732635498046875
-0.17413330078125
-0.1758270263671875
-0.1796722412109375
-0.18255615234375
-0.190338134765625
-0.1971588134765625
-0.2051239013671875
-0.2114410400390625
-0.21221923828125
-0.21697998046875
-0.21624755859375
-0.211212158203125
-0.2042999267578125
-0.1984405517578125
-0.1922149658203125
-0.1836090087890625
-0.17669677734375
-0.1707000732421875
-0.1624603271484375
-0.1532135009765625
-0.1410369873046875
-0.1284027099609375
-0.1197967529296875
-0.1137542724609375
-0.10638427734375
-0.0975494384765625
-0.0979156494140625
-0.0937042236328125
-0.0792388916015625
-0.072967529296875
-0.0646820068359375
-0.0512237548828125
-0.04248046875
-0.0357513427734375
-0.0267791748046875
-0.0175323486328125
-0.009796142578125
-0.000274658203125
0.012908935546875
0.0209197998046875
0.0274200439453125
0.0325469970703125
0.0397796630859375
0.0471038818359375
0.0552520751953125
0.0626678466796875
0.0684356689453125
0.070587158203125
0.07196044921875
0.0674285888671875
0.0497589111328125
0.0299835205078125
0.0242156982421875
0.0240325927734375
0.0296173095703125
0.0420684814453125
0.0548858642578125
0.0587310791015625
0.0526885986328125
0.0482940673828125
0.04779052734375
0.049896240234375
0.048614501953125
0.0422515869140625
0.0365753173828125
0.0315399169921875
0.0252227783203125
0.026458740234375
0.0359344482421875
0.0456390380859375
0.0550689697265625
0.0607452392578125
0.0657806396484375
0.06719970703125
0.0703582763671875
0.07232666015625
0.0675201416015625
0.0596923828125
0.0561676025390625
0.0558013916015625
0.0560760498046875
0.0485687255859375
0.0468292236328125
0.045867919921875
0.0449066162109375
0.0435791015625
0.0382232666015625
0.0304412841796875
0.0177154541015625
0.01519775390625
0.0148773193359375
0.0108489990234375
0.01043701171875
0.0095672607421875
0.00640869140625
0.0038909912109375
0.0044403076171875
0.0080108642578125
0.0084228515625
0.00714111328125
0.001922607421875
-0.0054473876953125
-0.0132293701171875
-0.0182647705078125
-0.0207366943359375
-0.0218353271484375
-0.02032470703125
-0.0187225341796875
-0.0146942138671875
-0.0085601806640625
-0.0063629150390625
-0.0047149658203125
-0.0052642822265625
-0.0097503662109375
-0.0132293701171875
-0.0164794921875
-0.01702880859375
-0.0183563232421875
-0.01959228515625
-0.0206451416015625
-0.0181732177734375
-0.02142333984375
-0.0344696044921875
-0.04412841796875
-0.04833984375
-0.0575408935546875
-0.0623016357421875
-0.056304931640625
-0.0482025146484375
-0.0458221435546875
-0.04449462890625
-0.0426177978515625
-0.04449462890625
-0.0497589111328125
-0.04998779296875
-0.0496673583984375
-0.0490264892578125
-0.0469207763671875
-0.03936767578125
-0.0319976806640625
-0.02490234375
-0.020599365234375
-0.0184478759765625
-0.0191802978515625
-0.0215606689453125
-0.0223846435546875
-0.0165252685546875
-0.0089263916015625
-0.00164794921875
0.0103912353515625
0.01885986328125
0.0211944580078125
0.0189971923828125
0.02069091796875
0.0190887451171875
0.0128631591796875
0.004852294921875
-0.00128173828125
-0.0084686279296875
-0.01922607421875
-0.0297088623046875
-0.04266357421875
-0.0520477294921875
-0.0612030029296875
-0.068389892578125
-0.070220947265625
-0.068572998046875
-0.0648651123046875
-0.0608367919921875
-0.06129455566406251
-0.0630340576171875
-0.06239318847656251
-0.059967041015625
-0.0580902099609375
-0.0570831298828125
-0.0557098388671875
-0.0517730712890625
-0.04779052734375
-0.0449066162109375
-0.0431671142578125
-0.0403289794921875
-0.0362091064453125
-0.03826904296875
-0.0438995361328125
-0.0482940673828125
-0.055389404296875
-0.0619354248046875
-0.0666961669921875
-0.0637664794921875
-0.06202697753906251
-0.06124877929687501
-0.05877685546875
-0.0559844970703125
-0.053558349609375
-0.0523223876953125
-0.0514068603515625
-0.0494842529296875
-0.0482940673828125
-0.0488433837890625
-0.0459136962890625
-0.04229736328125
-0.0390472412109375
-0.0349273681640625
-0.030303955078125
-0.0245361328125
-0.0183563232421875
-0.0113067626953125
-0.0105743408203125
-0.0145111083984375
-0.0183563232421875
-0.02288818359375
-0.0298004150390625
-0.0449981689453125
-0.0575408935546875
-0.06207275390624999
-0.056121826171875
-0.0472869873046875
-0.0437164306640625
-0.041290283203125
-0.0409698486328125
-0.0406036376953125
-0.0406036376953125
-0.0379486083984375
-0.033966064453125
-0.031036376953124997
-0.0319061279296875
-0.0327301025390625
-0.0285186767578125
-0.0239410400390625
-0.01922607421875
-0.0183563232421875
-0.0256805419921875
-0.0344696044921875
-0.0383148193359375
-0.03277587890625
-0.0265045166015625
-0.02178955078125
-0.02215576171875
-0.0206451416015625
-0.0190887451171875
-0.0234832763671875
-0.0272369384765625
-0.030990600585937503
-0.0341949462890625
-0.0407867431640625
-0.0420684814453125
-0.0340118408203125
-0.02655029296875
-0.0247650146484375
-0.027923583984375
-0.0303497314453125
-0.0307159423828125
-0.0263214111328125
-0.0207366943359375
-0.019500732421875
-0.0212860107421875
-0.020416259765625
-0.0183563232421875
-0.0193634033203125
-0.0205535888671875
-0.02105712890625
-0.0216522216796875
-0.0209197998046875
-0.02105712890625
-0.01849365234375
-0.0146026611328125
-0.0100250244140625
-0.008514404296875
-0.0129547119140625
-0.0193634033203125
-0.0282440185546875
-0.0396881103515625
-0.04888916015625
-0.056854248046875
-0.0628509521484375
-0.0670623779296875
-0.0672454833984375
-0.059967041015625
-0.04815673828125
-0.0438079833984375
-0.0471038818359375
-0.0559844970703125
-0.0626678466796875
-0.06427001953125
-0.0666961669921875
-0.0702667236328125
-0.0766754150390625
-0.0853729248046875
-0.0931549072265625
-0.0966339111328125
-0.0964508056640625
-0.0935211181640625
-0.0961761474609375
-0.0998382568359375
-0.10235595703125
-0.1007537841796875
-0.0952606201171875
-0.089447021484375
-0.0829010009765625
-0.0750274658203125
-0.0688934326171875
-0.0664215087890625
-0.0642242431640625
-0.06134033203124999
-0.0567626953125
-0.056671142578125
-0.0638580322265625
-0.0708160400390625
-0.0707244873046875
-0.068756103515625
-0.06793212890625
-0.0706329345703125
-0.076446533203125
-0.078460693359375
-0.0774078369140625
-0.079010009765625
-0.082122802734375
-0.0848236083984375
-0.0899505615234375
-0.0948028564453125
-0.0941619873046875
-0.0897674560546875
-0.08221435546875
-0.0734710693359375
-0.0637664794921875
-0.0629425048828125
-0.0684356689453125
-0.0751190185546875
-0.0807037353515625
-0.0847320556640625
-0.092193603515625
-0.0975494384765625
-0.1002044677734375
-0.10711669921875
-0.1135711669921875
-0.1186981201171875
-0.12345886230468749
-0.1262969970703125
-0.12982177734375
-0.1341705322265625
-0.1388397216796875
-0.1480865478515625
-0.1601715087890625
-0.169830322265625
-0.17047119140625
-0.1685943603515625
-0.165618896484375
-0.16314697265625
-0.1652069091796875
-0.166534423828125
-0.1674041748046875
-0.16680908203125
-0.16021728515625
-0.1490020751953125
-0.1373748779296875
-0.130645751953125
-0.1266632080078125
-0.1245574951171875
-0.1230926513671875
-0.1239166259765625
-0.1243743896484375
-0.1179656982421875
-0.1069793701171875
-0.094940185546875
-0.0822601318359375
-0.076263427734375
-0.0747528076171875
-0.06903076171875
-0.0603790283203125
-0.0408782958984375
-0.0191802978515625
-0.0014190673828125
0.0128173828125
0.0222015380859375
0.022613525390625
0.0135498046875
0.0038909912109375
-0.002838134765625
-0.01153564453125
-0.01885986328125
-0.0204620361328125
-0.01776123046875
-0.0165252685546875
-0.019134521484375
-0.02142333984375
-0.02215576171875
-0.0223846435546875
-0.0220184326171875
-0.0213775634765625
-0.0216522216796875
-0.019683837890625
-0.0145111083984375
-0.0073699951171875
-0.0055389404296875
-0.003936767578125
0.0086517333984375
0.0201873779296875
0.0236663818359375
0.0281524658203125
0.0356597900390625
0.0407867431640625
0.04156494140625
0.0380401611328125
0.0343780517578125
0.030807495117187503
0.0276947021484375
0.0212860107421875
0.0196380615234375
0.02032470703125
0.0143280029296875
0.0131378173828125
0.0190887451171875
0.0247650146484375
0.031585693359375
0.04302978515625
0.0606536865234375
0.0867462158203125
0.11993408203125
0.1612701416015625
0.2023773193359375
0.243438720703125
0.2798309326171875
0.3016204833984375
0.3073883056640625
0.2955780029296875
0.2867889404296875
0.2817535400390625
0.28399658203125
0.2956695556640625
0.333251953125
0.37738037109375
0.4268646240234375
0.5047760009765625
0.61029052734375
0.6727294921875
0.6237030029296875
0.5050048828125
0.39385986328125
0.2987823486328125
0.22979736328125
0.2080535888671875
0.2372589111328125
0.2993316650390625
0.3484039306640625
0.36968994140625
0.3803558349609375
0.3835601806640625
0.3786163330078125
0.3650665283203125
0.3588409423828125
0.3607635498046875
0.3551788330078125
0.3376007080078125
0.3094024658203125
0.2679290771484375
0.211029052734375
0.1436920166015625
0.0786895751953125
0.02911376953125
-0.00128173828125
-0.0230255126953125
-0.03350830078125
-0.0330963134765625
-0.0296173095703125
-0.027099609375
-0.0283355712890625
-0.0348358154296875
-0.0424346923828125
-0.0469207763671875
-0.0510406494140625
-0.0554351806640625
-0.057952880859375
-0.06138610839843749
-0.065460205078125
-0.0659637451171875
-0.0713653564453125
-0.0831756591796875
-0.0964508056640625
-0.1144866943359375
-0.1329803466796875
-0.1476287841796875
-0.1533966064453125
-0.1509246826171875
-0.1517486572265625
-0.1579742431640625
-0.1622772216796875
-0.16497802734375
-0.1636962890625
-0.15948486328125
-0.15289306640625
-0.1386566162109375
-0.1188812255859375
-0.10235595703125
-0.0925140380859375
-0.0832672119140625
-0.0692596435546875
-0.0499420166015625
-0.0320892333984375
-0.0223388671875
-0.0133209228515625
-0.0025177001953125
0.0085601806640625
0.0151519775390625
0.0218353271484375
0.0298919677734375
0.034149169921875
0.0350189208984375
0.0339202880859375
0.0335540771484375
0.03094482421875
0.027099609375
0.0258636474609375
0.02471923828125
0.0220184326171875
0.0233917236328125
0.0237579345703125
0.0247650146484375
0.02471923828125
0.0218353271484375
0.017669677734375
0.015472412109375
0.0157012939453125
0.01776123046875
0.02032470703125
0.0203704833984375
0.0191802978515625
0.0178985595703125
0.018768310546875
0.0234832763671875
0.0279693603515625
0.02471923828125
0.0194549560546875
0.0175323486328125
0.0178985595703125
0.019683837890625
0.0241241455078125
0.0318145751953125
0.035430908203125
0.0376739501953125
0.0333709716796875
0.0258636474609375
0.0171661376953125
0.0120849609375
0.0110321044921875
0.0124053955078125
0.015609741210937498
0.0167083740234375
0.0117645263671875
0.0017852783203125
-0.0056304931640625
-0.0062713623046875
-0.0035247802734375
-0.0041656494140625
-0.0113983154296875
-0.0190887451171875
-0.0283355712890625
-0.0395050048828125
-0.0487518310546875
-0.0558929443359375
-0.0591888427734375
-0.0636749267578125
-0.0677032470703125
-0.0715484619140625
-0.0738372802734375
-0.07891845703125
-0.08953857421875
-0.0985565185546875
-0.1036376953125
-0.1072540283203125
-0.11260986328125
-0.1219940185546875
-0.1293182373046875
-0.134857177734375
-0.1340789794921875
-0.1374664306640625
-0.1413116455078125
-0.14044189453125
-0.1380157470703125
-0.1410369873046875
-0.1457061767578125
-0.1420440673828125
-0.1395721435546875
-0.1405792236328125
-0.1403961181640625
-0.1407623291015625
-0.148223876953125
-0.1661224365234375
-0.1818695068359375
-0.1918487548828125
-0.200042724609375
-0.2069549560546875
-0.2082366943359375
-0.2091522216796875
-0.20928955078125
-0.2086944580078125
-0.207366943359375
-0.2036590576171875
-0.200408935546875
-0.1958770751953125
-0.1948699951171875
-0.1919403076171875
-0.18365478515625
-0.1742706298828125
-0.168548583984375
-0.16387939453125
-0.1592559814453125
-0.1549072265625
-0.1467132568359375
-0.1372833251953125
-0.1278533935546875
-0.12409973144531249
-0.12272644042968749
-0.1215362548828125
-0.1156768798828125
-0.1054229736328125
-0.0921478271484375
-0.0797882080078125
-0.0689849853515625
-0.0584564208984375
-0.04632568359375
-0.0371246337890625
-0.0287017822265625
-0.0208740234375
-0.0148773193359375
-0.0090179443359375
-0.00054931640625
0.0091094970703125
0.019317626953125
0.03350830078125
0.0442657470703125
0.052459716796875
0.0588226318359375
0.0585479736328125
0.056304931640625
0.0542449951171875
0.0533294677734375
0.0553436279296875
0.0562591552734375
0.0582733154296875
0.0634918212890625
0.0699005126953125
0.075164794921875
0.0788726806640625
0.0798797607421875
0.0823516845703125
0.08331298828125
0.0845489501953125
0.0841827392578125
0.0820770263671875
0.0839080810546875
0.08807373046875
0.090179443359375
0.0908660888671875
0.0904083251953125
0.0895843505859375
0.0882568359375
0.08074951171875
0.0665130615234375
0.05401611328125
0.049713134765625
0.0525970458984375
0.05474853515625
0.0580902099609375
0.0590057373046875
0.0558013916015625
0.0547943115234375
0.0577239990234375
0.0605621337890625
0.0598297119140625
0.05657958984375
0.0536041259765625
0.0556182861328125
0.0599212646484375
0.0641326904296875
0.0640411376953125
0.060699462890625
0.05731201171875
0.0545196533203125
0.0485687255859375
0.0417022705078125
0.0353851318359375
0.0330047607421875
0.0375823974609375
0.0384979248046875
0.03662109375
0.030990600585937503
0.0301666259765625
0.0335540771484375
0.0409698486328125
0.04632568359375
0.044952392578125
0.0406036376953125
0.0339202880859375
0.0281524658203125
0.0214691162109375
0.0193634033203125
0.0210113525390625
0.0218353271484375
0.02178955078125
0.0206451416015625
0.0220184326171875
0.0238494873046875
0.0296173095703125
0.0407867431640625
0.0513153076171875
0.0545196533203125
0.0510406494140625
0.0437164306640625
0.035797119140625
0.0320892333984375
0.0282440185546875
0.0209197998046875
0.0066375732421875
-0.0022430419921875
-0.00714111328125
-0.0073699951171875
-0.00640869140625
-0.0027008056640625
-0.0010528564453125
-0.001373291015625
0.00091552734375
0.00640869140625
0.0090179443359375
0.0128631591796875
0.0194549560546875
0.0208740234375
0.0181732177734375
0.0216522216796875
0.0257720947265625
0.0211029052734375
0.0192718505859375
0.0193634033203125
0.0173492431640625
0.0142364501953125
0.0099334716796875
0.00421142578125
0.0013275146484375
0.005035400390625
0.0143280029296875
0.0244903564453125
0.0295257568359375
0.0379486083984375
0.0457305908203125
0.05401611328125
0.06239318847656251
0.06939697265625
0.0694427490234375
0.0648651123046875
0.0601043701171875
0.0601959228515625
0.06719970703125
0.0706329345703125
0.0701751708984375
0.0684356689453125
0.0690765380859375
0.069580078125
0.0668792724609375
0.0604248046875
0.052276611328125
0.0442657470703125
0.0424346923828125
0.0393218994140625
0.0370330810546875
0.0327301025390625
0.0337371826171875
0.0428009033203125
0.049713134765625
0.0551605224609375
0.057403564453125
0.0622100830078125
0.0685272216796875
0.0758514404296875
0.08441162109375
0.0967254638671875
0.10491943359375
0.1055145263671875
0.1055145263671875
0.106201171875
0.1021270751953125
0.09613037109375
0.0900421142578125
0.087799072265625
0.0899505615234375
0.0933380126953125
0.0955352783203125
0.0958099365234375
0.09722900390625
0.0986480712890625
0.0996551513671875
0.0940704345703125
0.0860137939453125
0.0841827392578125
0.0855560302734375
0.0807952880859375
0.0763092041015625
0.0726470947265625
0.07177734375
0.074798583984375
0.0748443603515625
0.0730133056640625
0.0718231201171875
0.0778656005859375
0.086883544921875
0.0928802490234375
0.0945281982421875
0.0952606201171875
0.09246826171875
0.0896759033203125
0.0887603759765625
0.0858306884765625
0.0888519287109375
0.0888519287109375
0.0921478271484375
0.09649658203125
0.0983734130859375
0.0989227294921875
0.1013946533203125
0.1120147705078125
0.1180572509765625
0.1277618408203125
0.1296844482421875
0.1281280517578125
0.1316986083984375
0.1411285400390625
0.1479949951171875
0.1482696533203125
0.1475372314453125
0.1533050537109375
0.1569671630859375
0.161407470703125
0.1671295166015625
0.1728057861328125
0.175323486328125
0.17596435546875
0.1817779541015625
0.1846160888671875
0.1874542236328125
0.1926727294921875
0.201873779296875
0.2112579345703125
0.2212371826171875
0.23016357421875
0.230072021484375
0.22576904296875
0.2217864990234375
0.2185821533203125
0.2116241455078125
0.2040252685546875
0.1980743408203125
0.1909332275390625
0.1903839111328125
0.1921234130859375
0.1911163330078125
0.1902008056640625
0.1873626708984375
0.1807708740234375
0.1771087646484375
0.17962646484375
0.1774749755859375
0.1694183349609375
0.1591644287109375
0.1561431884765625
0.1459808349609375
0.1309661865234375
0.123687744140625
0.1245574951171875
0.12409973144531249
0.12359619140625
0.11883544921875
0.1127471923828125
0.10784912109375
0.1040496826171875
0.1002044677734375
0.0908660888671875
0.0866546630859375
0.0855560302734375
0.0835418701171875
0.0937042236328125
0.110137939453125
0.1197052001953125
0.1250152587890625
0.1299591064453125
0.1311492919921875
0.1322021484375
0.13604736328125
0.1453399658203125
0.15655517578125
0.169281005859375
0.1730804443359375
0.1687774658203125
0.1669464111328125
0.16754150390625
0.16497802734375
0.1634674072265625
0.1664886474609375
0.16827392578125
0.1657562255859375
0.15655517578125
0.1470794677734375
0.129913330078125
0.110504150390625
0.0991058349609375
0.1004791259765625
0.1062469482421875
0.099151611328125
0.0904083251953125
0.0837249755859375
0.070220947265625
0.0530548095703125
0.0409698486328125
0.0398712158203125
0.0494842529296875
0.0592803955078125
0.06161499023437501
0.0683441162109375
0.0765838623046875
0.073516845703125
0.0600128173828125
0.0446319580078125
0.0388641357421875
0.0398712158203125
0.0373992919921875
0.0342864990234375
0.0276947021484375
0.0188140869140625
0.0113525390625
0.0048065185546875
0.0013275146484375
-0.0041656494140625
-0.0095672607421875
-0.0180816650390625
-0.0292510986328125
-0.0345611572265625
-0.037078857421875
-0.0352020263671875
-0.0314483642578125
-0.0402374267578125
-0.0536041259765625
-0.0668792724609375
-0.0796051025390625
-0.08587646484375
-0.086151123046875
-0.0831756591796875
-0.08001708984375
-0.0842742919921875
-0.0956268310546875
-0.10675048828125
-0.1142120361328125
-0.118194580078125
-0.1141204833984375
-0.10711669921875
-0.0997467041015625
-0.0953521728515625
-0.0962677001953125
-0.1038665771484375
-0.1101837158203125
-0.1132049560546875
-0.11590576171875
-0.1153106689453125
-0.112518310546875
-0.10931396484375
-0.1110076904296875
-0.1164093017578125
-0.1205291748046875
-0.1255645751953125
-0.1307830810546875
-0.13348388671875
-0.1353607177734375
-0.1378326416015625
-0.1394805908203125
-0.1366424560546875
-0.1288604736328125
-0.128814697265625
-0.1316070556640625
-0.1268463134765625
-0.1179656982421875
-0.1101837158203125
-0.10418701171875
-0.0993804931640625
-0.0927886962890625
-0.0823516845703125
-0.0706329345703125
-0.06500244140625
-0.061798095703125
-0.0563507080078125
-0.051361083984375
-0.0554351806640625
-0.0631256103515625
-0.0709991455078125
-0.07232666015625
-0.0728302001953125
-0.0704498291015625
-0.0695343017578125
-0.0719146728515625
-0.0786895751953125
-0.0890350341796875
-0.1019439697265625
-0.1143951416015625
-0.1264801025390625
-0.13385009765625
-0.133758544921875
-0.13311767578125
-0.131011962890625
-0.12908935546875
-0.12542724609375
-0.1160430908203125
-0.0973663330078125
-0.07342529296875
-0.0492095947265625
-0.025634765625
9.1552734375e-05
0.0342864990234375
0.07379150390625
0.1011199951171875
0.1017608642578125
0.09246826171875
0.08734130859375
0.10711669921875
0.1349945068359375
0.1687774658203125
0.2034759521484375
0.2392730712890625
0.2936553955078125
0.3742218017578125
0.48138427734375
0.5959625244140625
0.6315765380859375
0.5608978271484375
0.4601898193359375
0.364288330078125
0.2862396240234375
0.246368408203125
0.2728729248046875
0.3281707763671875
0.3675384521484375
0.3605804443359375
0.3299102783203125
0.2748870849609375
0.20965576171875
0.1518402099609375
0.107025146484375
0.0725555419921875
0.048797607421875
0.0222930908203125
-0.0191802978515625
-0.0636749267578125
-0.1079864501953125
-0.1524810791015625
-0.1844329833984375
-0.20672607421875
-0.22393798828125
-0.24078369140625
-0.25506591796875
-0.26788330078125
-0.28271484375
-0.2937469482421875
-0.3036346435546875
-0.3153533935546875
-0.3242340087890625
-0.3315582275390625
-0.3392486572265625
-0.3396148681640625
-0.3421783447265625
-0.3359527587890625
-0.31585693359375
-0.3000640869140625
-0.2863311767578125
-0.27996826171875
-0.27740478515625
-0.2719573974609375
-0.2670135498046875
-0.26202392578125
-0.2574005126953125
-0.2526397705078125
-0.24984741210937497
-0.24806213378906253
-0.24531555175781253
-0.2384490966796875
-0.23199462890625
-0.2255401611328125
-0.21661376953125
-0.211212158203125
-0.2070465087890625
-0.1996307373046875
-0.1993560791015625
-0.2055816650390625
-0.2097930908203125
-0.21551513671875
-0.2138671875
-0.209930419921875
-0.2018280029296875
-0.1981658935546875
-0.1997222900390625
-0.1995391845703125
-0.2016448974609375
-0.2044830322265625
-0.201873779296875
-0.1947784423828125
-0.1830596923828125
-0.1852569580078125
-0.1843414306640625
-0.1754608154296875
-0.1727142333984375
-0.1688690185546875
-0.1699676513671875
-0.17633056640625
-0.1792144775390625
-0.1823272705078125
-0.186676025390625
-0.1842041015625
-0.181365966796875
-0.1782073974609375
-0.1772918701171875
-0.17816162109375
-0.177886962890625
-0.178070068359375
-0.1782989501953125
-0.1818695068359375
-0.1824188232421875
-0.1775665283203125
-0.1714324951171875
-0.1697845458984375
-0.1614532470703125
-0.1554107666015625
-0.1579742431640625
-0.1590728759765625
-0.1572418212890625
-0.15069580078125
-0.1473541259765625
-0.14739990234375
-0.1502838134765625
-0.1549072265625
-0.158111572265625
-0.1651153564453125
-0.1685028076171875
-0.1641082763671875
-0.156829833984375
-0.14593505859375
-0.1362762451171875
-0.1385650634765625
-0.14190673828125
-0.1443328857421875
-0.1433258056640625
-0.1411285400390625
-0.1321563720703125
-0.1299591064453125
-0.1330718994140625
-0.138336181640625
-0.143829345703125
-0.1436004638671875
-0.1458892822265625
-0.1490020751953125
-0.14794921875
-0.1498260498046875
-0.1519317626953125
-0.1601715087890625
-0.1679534912109375
-0.1737213134765625
-0.1870880126953125
-0.1986236572265625
-0.2022857666015625
-0.20599365234375
-0.212860107421875
-0.2205047607421875
-0.2294769287109375
-0.23785400390625
-0.2435760498046875
-0.254058837890625
-0.2691192626953125
-0.2787322998046875
-0.27850341796875
-0.2783660888671875
-0.28326416015625
-0.29718017578125
-0.3061981201171875
-0.30450439453125
-0.2907257080078125
-0.2736053466796875
-0.26385498046875
-0.2601470947265625
-0.2571258544921875
-0.2534637451171875
-0.2560272216796875
-0.2596893310546875
-0.2570343017578125
-0.253509521484375
-0.2491607666015625
-0.2411041259765625
-0.241241455078125
-0.2441253662109375
-0.24650573730468753
-0.25067138671875
-0.25067138671875
-0.24989318847656247
-0.2487945556640625
-0.242156982421875
-0.2315826416015625
-0.2249908447265625
-0.2189483642578125
-0.2107086181640625
-0.20050048828125
-0.189605712890625
-0.188232421875
-0.1859893798828125
-0.180816650390625
-0.1748199462890625
-0.16717529296875
-0.1544036865234375
-0.14447021484375
-0.137054443359375
-0.12396240234375001
-0.1149444580078125
-0.1065216064453125
-0.0952606201171875
-0.087066650390625
-0.0821685791015625
-0.07086181640625
-0.06280517578125
-0.044769287109375
-0.02984619140625
-0.0197296142578125
-0.00714111328125
0.0026092529296875
0.0095672607421875
0.0143280029296875
0.01885986328125
0.0278778076171875
0.035797119140625
0.0407867431640625
0.0466461181640625
0.0501251220703125
0.0537872314453125
0.052001953125
0.051177978515625
0.04779052734375
0.040740966796875
0.0305328369140625
0.02471923828125
0.02984619140625
0.0369415283203125
0.0460968017578125
0.0535125732421875
0.0618438720703125
0.062530517578125
0.0679779052734375
0.0864715576171875
0.0975494384765625
0.1085357666015625
0.1155853271484375
0.1131134033203125
0.1131134033203125
0.1072540283203125
0.0926971435546875
0.0782318115234375
0.06166076660156251
0.0542449951171875
0.046966552734375
0.03570556640625
0.0287017822265625
0.02655029296875
0.0325469970703125
0.0467376708984375
0.0509033203125
0.0522308349609375
0.054656982421875
0.0584564208984375
0.05438232421875
0.06239318847656251
0.06610107421875
0.059417724609375
0.0579986572265625
0.0553436279296875
0.0491180419921875
0.0463714599609375
0.0442657470703125
0.0346527099609375
0.0124053955078125
0.027557373046875
0.035980224609375
0.0368499755859375
0.03863525390625
0.0319976806640625
0.0362548828125
0.04339599609375
0.020965576171875
-0.0015106201171875
0.0304412841796875
0.03973388671875
0.0304412841796875
0.0266876220703125
0.0283355712890625
0.0144195556640625
-0.0007781982421875
0.0076446533203125
0.0142822265625
0.0165252685546875
0.0178985595703125
0.02215576171875
0.0235748291015625
0.0146026611328125
0.0010528564453125
-0.0084686279296875
-0.011627197265625
-0.0315399169921875
-0.0428009033203125
-0.0182647705078125
-0.0037994384765625
0.01080322265625
0.02105712890625
0.0247650146484375
0.0222930908203125
0.0170745849609375
0.0161590576171875
0.0231170654296875
0.0319061279296875
0.041748046875
0.0640411376953125
0.07598876953125
0.0751190185546875
0.0661468505859375
0.0567169189453125
0.0435333251953125
0.0350189208984375
0.0276947021484375
0.0187225341796875
0.0139617919921875
0.015426635742187498
0.0177154541015625
0.0147857666015625
0.01300048828125
0.0124053955078125
0.00677490234375
0.0020599365234375
0.001007080078125
0.00201416015625
0.00677490234375
0.0102996826171875
0.01007080078125
0.010711669921875
0.0133209228515625
0.024627685546875
0.0394134521484375
0.0478363037109375
0.0524139404296875
0.0517730712890625
0.0544281005859375
0.060791015625
0.0634918212890625
0.067474365234375
0.0716400146484375
0.07891845703125
0.0894012451171875
0.0995635986328125
0.1102752685546875
0.1207122802734375
0.1255645751953125
0.1297760009765625
0.13128662109375
0.1445159912109375
0.1562347412109375
0.1634674072265625
0.1641082763671875
0.1551361083984375
0.138519287109375
0.1188812255859375
0.1039581298828125
0.1056976318359375
0.1096343994140625
0.0973663330078125
0.0806121826171875
0.0677947998046875
0.062164306640625
0.05987548828125
0.0579071044921875
0.0505828857421875
0.0430755615234375
0.0353851318359375
0.0303497314453125
0.0234375
0.015838623046875
0.0071868896484375
-0.003021240234375
-0.0179901123046875
-0.0377655029296875
-0.0572662353515625
-0.0685272216796875
-0.077545166015625
-0.0873870849609375
-0.0937042236328125
-0.0991058349609375
-0.1035003662109375
-0.1113739013671875
-0.1175994873046875
-0.1281280517578125
-0.13385009765625
-0.14227294921875
-0.151702880859375
-0.159027099609375
-0.1609039306640625
-0.1621856689453125
-0.16790771484375
-0.172393798828125
-0.17706298828125
-0.1801300048828125
-0.1807708740234375
-0.1818695068359375
-0.1815032958984375
-0.1875457763671875
-0.1945037841796875
-0.197296142578125
-0.1981658935546875
-0.1991729736328125
-0.196746826171875
-0.1916656494140625
-0.1848907470703125
-0.1823272705078125
-0.1843414306640625
-0.1909332275390625
-0.1967010498046875
-0.2006378173828125
-0.203155517578125
-0.2030181884765625
-0.1988983154296875
-0.1923065185546875
-0.186859130859375
-0.18585205078125
-0.1840667724609375
-0.1750946044921875
-0.165069580078125
-0.1582489013671875
-0.1506500244140625
-0.1427764892578125
-0.133392333984375
-0.1300506591796875
-0.1270294189453125
-0.1222686767578125
-0.11737060546875
-0.1143951416015625
-0.1128387451171875
-0.11004638671875
-0.1129302978515625
-0.12139892578125
-0.1257476806640625
-0.125152587890625
-0.1271209716796875
-0.1296844482421875
-0.131744384765625
-0.1285858154296875
-0.114715576171875
-0.0960845947265625
-0.08477783203125
-0.07196044921875
-0.0540618896484375
-0.0355224609375
-0.0175323486328125
-0.0044403076171875
0.0005035400390625
0.0005950927734375
-0.0011444091796875
-0.0063629150390625
-0.0120849609375
-0.0119476318359375
-0.0075531005859375
0.0013275146484375
0.0113067626953125
0.0211944580078125
0.031173706054687503
0.0449066162109375
0.0553436279296875
0.069305419921875
0.0904083251953125
0.1156768798828125
0.1353607177734375
0.1485443115234375
0.1544036865234375
0.1540374755859375
0.1522979736328125
0.1511077880859375
0.1544036865234375
0.16131591796875
0.1655731201171875
0.1669464111328125
0.1712493896484375
0.1725311279296875
0.168182373046875
0.1632843017578125
0.1585235595703125
0.1560516357421875
0.15106201171875
0.1407623291015625
0.132110595703125
0.12744140625
0.1270294189453125
0.1284942626953125
0.1274871826171875
0.1251983642578125
0.1170501708984375
0.1094512939453125
0.106292724609375
0.1021270751953125
0.0998382568359375
0.0988311767578125
0.0948028564453125
0.0922393798828125
0.09759521484375
0.0982818603515625
0.0896759033203125
0.07965087890625
0.07379150390625
0.0751190185546875
0.0805206298828125
0.0891265869140625
0.0991058349609375
0.1018524169921875
0.0991973876953125
0.094024658203125
0.088165283203125
0.083404541015625
0.0736083984375
0.0672454833984375
0.0644073486328125
0.0674285888671875
0.073516845703125
0.0742950439453125
0.0733795166015625
0.07159423828125
0.0687103271484375
0.0679779052734375
0.0662384033203125
0.0681610107421875
0.0684356689453125
0.0687103271484375
0.0681610107421875
0.066741943359375
0.0644073486328125
0.0586395263671875
0.054290771484375
0.0505828857421875
0.0496673583984375
0.0562591552734375
0.0644989013671875
0.0665130615234375
0.0726470947265625
0.09283447265625
0.12483215332031249
0.159210205078125
0.19207763671875
0.2218780517578125
0.2555694580078125
0.281524658203125
0.2973175048828125
0.2975921630859375
0.2933807373046875
0.2931976318359375
0.2990570068359375
0.3053741455078125
0.3133392333984375
0.3369598388671875
0.3619537353515625
0.3908843994140625
0.4585418701171875
0.5680389404296875
0.65203857421875
0.6279144287109375
0.52313232421875
0.4091033935546875
0.310638427734375
0.2266387939453125
0.1848907470703125
0.2024688720703125
0.2706756591796875
0.3249664306640625
0.3485870361328125
0.3473968505859375
0.3319244384765625
0.3156280517578125
0.2961273193359375
0.28326416015625
0.2831268310546875
0.28546142578125
0.272735595703125
0.2435760498046875
0.1999053955078125
0.1467132568359375
0.0885772705078125
0.0337371826171875
-0.00970458984375
-0.0479278564453125
-0.0772247314453125
-0.09521484375
-0.1035919189453125
-0.1110076904296875
-0.1213531494140625
-0.1304168701171875
-0.13568115234375
-0.1415863037109375
-0.14923095703125
-0.1586151123046875
-0.1652069091796875
-0.17047119140625
-0.1732635498046875
-0.1715240478515625
-0.1691436767578125
-0.1655731201171875
-0.1633758544921875
-0.1656646728515625
-0.16900634765625
-0.1716156005859375
-0.1732635498046875
-0.17340087890625
-0.17230224609375
-0.1662139892578125
-0.1626434326171875
-0.1667633056640625
-0.17340087890625
-0.1761932373046875
-0.1754608154296875
-0.1701507568359375
-0.1692352294921875
-0.17340087890625
-0.1777496337890625
-0.1779327392578125
-0.174407958984375
-0.170562744140625
-0.162872314453125
-0.1545867919921875
-0.1473541259765625
-0.1454315185546875
-0.1455230712890625
-0.145843505859375
-0.1433258056640625
-0.1409454345703125
-0.1387481689453125
-0.136688232421875
-0.1336212158203125
-0.1281280517578125
-0.1238250732421875
-0.11993408203125
-0.116363525390625
-0.115814208984375
-0.1202545166015625
-0.125518798828125
-0.13055419921875
-0.1316986083984375
-0.131927490234375
-0.1324310302734375
-0.1292266845703125
-0.1223602294921875
-0.1194305419921875
-0.1207122802734375
-0.1219940185546875
-0.1239166259765625
-0.12419128417968749
-0.1223602294921875
-0.1193389892578125
-0.115447998046875
-0.113983154296875
-0.11590576171875
-0.1175079345703125
-0.116455078125
-0.1129302978515625
-0.1067962646484375
-0.1011199951171875
-0.0996551513671875
-0.0942535400390625
-0.0908203125
-0.0919647216796875
-0.090728759765625
-0.0896759033203125
-0.0933380126953125
-0.09979248046875
-0.10198974609375
-0.09906005859375
-0.0959930419921875
-0.095306396484375
-0.0938873291015625
-0.0905914306640625
-0.086151123046875
-0.08074951171875
-0.0801544189453125
-0.0855560302734375
-0.0923309326171875
-0.0993804931640625
-0.10546875
-0.1096343994140625
-0.1118316650390625
-0.11297607421875
-0.1118316650390625
-0.1099090576171875
-0.11114501953125
-0.1184234619140625
-0.1252899169921875
-0.131103515625
-0.135040283203125
-0.1349945068359375
-0.13165283203125
-0.1337127685546875
-0.1379241943359375
-0.1399383544921875
-0.1435089111328125
-0.14703369140625
-0.1540374755859375
-0.1605377197265625
-0.1634674072265625
-0.1634674072265625
-0.1570587158203125
-0.1534881591796875
-0.1527557373046875
-0.1482696533203125
-0.1434173583984375
-0.1383819580078125
-0.1384735107421875
-0.143829345703125
-0.148681640625
-0.154083251953125
-0.1557769775390625
-0.1563262939453125
-0.1560516357421875
-0.1545867919921875
-0.1505584716796875
-0.1457977294921875
-0.1417694091796875
-0.14447021484375
-0.1501007080078125
-0.1521148681640625
-0.1483612060546875
-0.14227294921875
-0.135955810546875
-0.131195068359375
-0.12872314453125
-0.121673583984375
-0.1110992431640625
-0.1040496826171875
-0.0997467041015625
-0.0971832275390625
-0.0920562744140625
-0.0848236083984375
-0.0697174072265625
-0.0518646240234375
-0.03973388671875
-0.031768798828125
-0.02362060546875
-0.0138702392578125
-0.0091094970703125
-0.0066375732421875
-0.0057220458984375
-0.0031585693359375
9.1552734375e-05
0.00238037109375
0.00933837890625
0.0175323486328125
0.0244903564453125
0.0335540771484375
0.0426177978515625
0.0482025146484375
0.0504913330078125
0.0512237548828125
0.0519561767578125
0.0511322021484375
0.0495758056640625
0.0505828857421875
0.0520477294921875
0.0582733154296875
0.0657806396484375
0.068939208984375
0.0685272216796875
0.0688018798828125
0.07086181640625
0.0735626220703125
0.070770263671875
0.0681610107421875
0.069122314453125
0.071868896484375
0.0753936767578125
0.07452392578125
0.07049560546875
0.0680694580078125
0.06793212890625
0.0626678466796875
0.0628509521484375
0.06427001953125
0.0663299560546875
0.065460205078125
0.0633544921875
0.0604705810546875
0.0575408935546875
0.05804443359375
0.06280517578125
0.0647735595703125
0.0658721923828125
0.0688018798828125
0.07415771484375
0.0801544189453125
0.0847320556640625
0.08770751953125
0.0875701904296875
0.0860137939453125
0.0861968994140625
0.0846405029296875
0.0824432373046875
0.0841827392578125
0.0941619873046875
0.09979248046875
0.1020355224609375
0.10345458984375
0.1069793701171875
0.108673095703125
0.1114654541015625
0.1149444580078125
0.1149444580078125
0.1115570068359375
0.105377197265625
0.1016693115234375
0.1020355224609375
0.1049652099609375
0.1077117919921875
0.1115570068359375
0.1161346435546875
0.117462158203125
0.1146697998046875
0.1145782470703125
0.1178741455078125
0.1156768798828125
0.1125640869140625
0.11077880859375
0.1121063232421875
0.1113739013671875
0.1108245849609375
0.1154022216796875
0.12432861328125
0.1336212158203125
0.1392059326171875
0.1416778564453125
0.1425018310546875
0.1435089111328125
0.1505584716796875
0.1534881591796875
0.1527557373046875
0.1519317626953125
0.1508331298828125
0.1492767333984375
0.15142822265625
0.14886474609375
0.1428680419921875
0.1383819580078125
0.1403045654296875
0.1497344970703125
0.1587066650390625
0.1609954833984375
0.15765380859375
0.1564178466796875
0.1571502685546875
0.1609039306640625
0.1617279052734375
0.160491943359375
0.1631927490234375
0.1675872802734375
0.1712493896484375
0.1708831787109375
0.17083740234375
0.1716156005859375
0.1717987060546875
0.1712493896484375
0.1706085205078125
0.1679534912109375
0.1632843017578125
0.1583404541015625
0.1501007080078125
0.1435546875
0.1370086669921875
0.1324310302734375
0.1292266845703125
0.1292266845703125
0.1243743896484375
0.11700439453125
0.1108245849609375
0.106842041015625
0.1044158935546875
0.104461669921875
0.10198974609375
0.0970458984375
0.09136962890625
0.0849151611328125
0.080657958984375
0.0826263427734375
0.0813446044921875
0.0804290771484375
0.0783233642578125
0.0760345458984375
0.0785980224609375
0.0793304443359375
0.0780487060546875
0.072052001953125
0.0640411376953125
0.0544281005859375
0.049163818359375
0.0478363037109375
0.0447235107421875
0.0434417724609375
0.0419769287109375
0.0372161865234375
0.030807495117187503
0.0302581787109375
0.0280609130859375
0.0242156982421875
0.0213775634765625
0.0219268798828125
0.0251312255859375
0.0270538330078125
0.0276031494140625
0.028106689453125
0.0258636474609375
0.0246734619140625
0.0192718505859375
0.0120391845703125
0.0093841552734375
0.0132293701171875
0.0141448974609375
0.0138702392578125
0.0135955810546875
0.0149688720703125
0.0189971923828125
0.01776123046875
0.01739501953125
0.01776123046875
0.0164337158203125
0.01483154296875
0.0112152099609375
0.0042572021484375
9.1552734375e-05
0.0016937255859375
0.0106201171875
0.02325439453125
0.0384063720703125
0.0543365478515625
0.0642242431640625
0.0661468505859375
0.0657806396484375
0.0724639892578125
0.079742431640625
0.0876617431640625
0.0925140380859375
0.0945281982421875
0.09942626953125
0.1045074462890625
0.109588623046875
0.1104583740234375
0.1079864501953125
0.1095428466796875
0.1141204833984375
0.12506103515625
0.1376495361328125
0.1478118896484375
0.1638336181640625
0.182464599609375
0.1990814208984375
0.2091522216796875
0.2125396728515625
0.2152862548828125
0.218902587890625
0.220458984375
0.2206878662109375
0.223480224609375
0.2240753173828125
0.2194061279296875
0.21441650390625
0.21624755859375
0.2163848876953125
0.2127227783203125
0.2114410400390625
0.207366943359375
0.1968841552734375
0.1858978271484375
0.1755523681640625
0.1694183349609375
0.1684112548828125
0.1611785888671875
0.1443328857421875
0.12432861328125
0.1020355224609375
0.0838165283203125
0.0691680908203125
0.0563507080078125
0.04815673828125
0.0493927001953125
0.0519561767578125
0.04742431640625
0.042388916015625
0.0403289794921875
0.0400543212890625
0.03533935546875
0.0268707275390625
0.0186309814453125
0.0146026611328125
0.0144195556640625
0.0125885009765625
0.0081024169921875
0.0034332275390625
0.0025177001953125
0.0038909912109375
0.002288818359375
-0.0050811767578125
-0.0139617919921875
-0.0184478759765625
-0.0220184326171875
-0.02764892578125
-0.0293426513671875
-0.0300750732421875
-0.03131103515625
-0.0300750732421875
-0.028106689453125
-0.0275115966796875
-0.0263214111328125
-0.0274200439453125
-0.02252197265625
-0.0133209228515625
-0.0100250244140625
-0.013916015625
-0.0246734619140625
-0.031951904296875
-0.0389556884765625
-0.0484771728515625
-0.05401611328125
-0.0539703369140625
-0.0544281005859375
-0.0509490966796875
-0.0349273681640625
-0.003204345703125
0.0359344482421875
0.0760345458984375
0.1104583740234375
0.1432342529296875
0.1775665283203125
0.2129058837890625
0.2350616455078125
0.2437591552734375
0.24980163574218747
0.2639007568359375
0.2779998779296875
0.2910003662109375
0.3160400390625
0.355865478515625
0.3935394287109375
0.4437103271484375
0.5338897705078125
0.6447601318359375
0.6978607177734375
0.6312103271484375
0.5187835693359375
0.4202728271484375
0.3343048095703125
0.2625274658203125
0.2400970458984375
0.2757110595703125
0.3310546875
0.3600311279296875
0.349822998046875
0.3119659423828125
0.26678466796875
0.2303009033203125
0.2089691162109375
0.2018280029296875
0.20489501953125
0.2068634033203125
0.1925811767578125
0.1633758544921875
0.1275787353515625
0.0842742919921875
0.0407867431640625
0.00128173828125
-0.0283355712890625
-0.048431396484375
-0.0574951171875
-0.05731201171875
-0.052001953125
-0.0523223876953125
-0.0592803955078125
-0.0683441162109375
-0.0774078369140625
-0.0814361572265625
-0.0809783935546875
-0.0857391357421875
-0.0923309326171875
-0.0960845947265625
-0.1025848388671875
-0.1041412353515625
-0.1044158935546875
-0.10546875
-0.104278564453125
-0.1013946533203125
-0.09759521484375
-0.0928802490234375
-0.0893096923828125
-0.0890350341796875
-0.0954437255859375
-0.1027679443359375
-0.1058807373046875
-0.10528564453125
-0.10821533203125
-0.1147613525390625
-0.11773681640625
-0.1116485595703125
-0.10565185546875
-0.1025848388671875
-0.0982818603515625
-0.0941619873046875
-0.0905914306640625
-0.0869293212890625
-0.082305908203125
-0.07891845703125
-0.0779571533203125
-0.0791473388671875
-0.0844573974609375
-0.0901336669921875
-0.0926055908203125
-0.09429931640625
-0.0965423583984375
-0.0950775146484375
-0.0850982666015625
-0.0806121826171875
-0.07598876953125
-0.07342529296875
-0.0776824951171875
-0.0838165283203125
-0.08587646484375
-0.08404541015625
-0.0820770263671875
-0.0761260986328125
-0.0733795166015625
-0.0699005126953125
-0.0659637451171875
-0.0669708251953125
-0.0672454833984375
-0.0673370361328125
-0.0702667236328125
-0.07452392578125
-0.0774993896484375
-0.0743865966796875
-0.0687103271484375
-0.0654144287109375
-0.0601959228515625
-0.0583648681640625
-0.05841064453125
-0.0552520751953125
-0.0547027587890625
-0.0602874755859375
-0.06610107421875
-0.0688934326171875
-0.0710906982421875
-0.0792388916015625
-0.0864715576171875
-0.08587646484375
-0.07781982421875
-0.06646728515625
-0.054656982421875
-0.049713134765625
-0.04815673828125
-0.0530548095703125
-0.0593719482421875
-0.06175231933593749
-0.0708160400390625
-0.08477783203125
-0.097503662109375
-0.1056060791015625
-0.1063385009765625
-0.0977783203125
-0.0844573974609375
-0.0743865966796875
-0.0707244873046875
-0.066741943359375
-0.0634002685546875
-0.0637664794921875
-0.0675201416015625
-0.0674285888671875
-0.0645904541015625
-0.0653228759765625
-0.0720062255859375
-0.0806121826171875
-0.0902252197265625
-0.0988311767578125
-0.1059722900390625
-0.1101837158203125
-0.1100006103515625
-0.1098175048828125
-0.109222412109375
-0.1069793701171875
-0.0968170166015625
-0.09320068359375
-0.0964508056640625
-0.1052398681640625
-0.114349365234375
-0.117462158203125
-0.1167755126953125
-0.11407470703125
-0.116546630859375
-0.12208557128906249
-0.123138427734375
-0.1262054443359375
-0.1349029541015625
-0.13604736328125
-0.1380157470703125
-0.1344451904296875
-0.1311492919921875
-0.1258392333984375
-0.1197052001953125
-0.1205291748046875
-0.12359619140625
-0.1260223388671875
-0.119659423828125
-0.1115570068359375
-0.1022186279296875
-0.0991973876953125
-0.0964508056640625
-0.0923309326171875
-0.0855560302734375
-0.0724639892578125
-0.0646820068359375
-0.0593719482421875
-0.0515899658203125
-0.0395050048828125
-0.03460693359375
-0.0345611572265625
-0.0345611572265625
-0.0325469970703125
-0.02618408203125
-0.0204620361328125
-0.0167999267578125
-0.013916015625
-0.0107574462890625
-0.0005950927734375
0.0122222900390625
0.0194549560546875
0.0278778076171875
0.0325469970703125
0.0317230224609375
0.0298004150390625
0.0284271240234375
0.0274200439453125
0.0276031494140625
0.0289764404296875
0.0357513427734375
0.0405120849609375
0.0485687255859375
0.052734375
0.0566253662109375
0.0592803955078125
0.0625762939453125
0.06390380859375
0.0607452392578125
0.0565338134765625
0.0547943115234375
0.0604705810546875
0.0676116943359375
0.0661468505859375
0.0628509521484375
0.0603790283203125
0.066192626953125
0.0734710693359375
0.0764007568359375
0.0760345458984375
0.0713653564453125
0.06939697265625
0.06903076171875
0.0645904541015625
0.0589141845703125
0.0556182861328125
0.0558929443359375
0.0600128173828125
0.0639495849609375
0.0681610107421875
0.073699951171875
0.0803375244140625
0.0806121826171875
0.0744781494140625
0.07232666015625
0.0699920654296875
0.0681610107421875
0.0681610107421875
0.0703582763671875
0.0731964111328125
0.0690765380859375
0.0626678466796875
0.0574493408203125
0.05181884765625
0.0464630126953125
0.0406036376953125
0.0409698486328125
0.0419769287109375
0.0423431396484375
0.0433502197265625
0.0435333251953125
0.04632568359375
0.0468292236328125
0.0427093505859375
0.0362091064453125
0.0303955078125
0.0236663818359375
0.0218353271484375
0.02435302734375
0.0267333984375
0.026824951171875
0.0240325927734375
0.016937255859375
0.0122222900390625
0.0086517333984375
0.0081024169921875
0.0104827880859375
0.0108489990234375
0.0097503662109375
0.014739990234375
0.0183563232421875
0.0176239013671875
0.0161590576171875
0.0135040283203125
0.0093841552734375
0.006591796875
0.0070037841796875
0.01080322265625
0.019866943359375
0.02142333984375
0.01776123046875
0.016937255859375
0.0167999267578125
0.0146026611328125
0.014923095703125
0.0166168212890625
0.0152435302734375
0.0126800537109375
0.0129547119140625
0.0178985595703125
0.0245819091796875
0.02911376953125
0.0335540771484375
0.0375823974609375
0.0344696044921875
0.030807495117187503
0.0238494873046875
0.0124969482421875
0.0070037841796875
0.0128173828125
0.0142364501953125
0.0172576904296875
0.02105712890625
0.02105712890625
0.0163421630859375
0.0159759521484375
0.018585205078125
0.0183563232421875
0.0207366943359375
0.0293426513671875
0.0323638916015625
0.0344696044921875
0.04119873046875
0.0490264892578125
0.0490264892578125
0.0446319580078125
0.0373992919921875
0.0284271240234375
0.02288818359375
0.0231170654296875
0.0179901123046875
0.0130462646484375
0.01171875
0.01263427734375
0.0163421630859375
0.0230255126953125
0.0234832763671875
0.0227508544921875
0.0178070068359375
0.0092010498046875
0.0025177001953125
-0.0018768310546875
0.00018310546875
0.0016937255859375
-0.0011444091796875
-0.0001373291015625
0.0082855224609375
0.0115814208984375
0.00933837890625
0.00531005859375
0.0051727294921875
0.0089263916015625
0.0122222900390625
0.0186309814453125
0.0281524658203125
0.0317230224609375
0.035064697265625
0.0376739501953125
0.0363922119140625
0.0252227783203125
0.0123138427734375
0.005767822265625
-0.00091552734375
-0.0104827880859375
-0.0138702392578125
-0.0032958984375
0.009063720703125
0.0182647705078125
0.0142822265625
0.0103912353515625
0.0071868896484375
4.57763671875e-05
-0.0033416748046875
-0.0085601806640625
-0.0182647705078125
-0.03277587890625
-0.0350189208984375
-0.02325439453125
-0.0045318603515625
0.0059967041015625
0.0147857666015625
0.01849365234375
0.01336669921875
0.007232666015625
0.0052642822265625
0.0049896240234375
-0.00494384765625
-0.0142364501953125
-0.01849365234375
-0.0168914794921875
-0.0119476318359375
-0.008331298828125
-0.0063629150390625
-0.0023345947265625
-0.0022430419921875
-0.0026092529296875
0.0032501220703125
0.0126800537109375
0.0200042724609375
0.02325439453125
0.0198211669921875
0.0200958251953125
0.0234375
0.0267791748046875
0.031585693359375
0.0276947021484375
0.0240325927734375
0.02984619140625
0.0420684814453125
0.0549774169921875
0.06390380859375
0.0696258544921875
0.0761260986328125
0.0782318115234375
0.0709991455078125
0.06610107421875
0.07122802734375
0.0781402587890625
0.08514404296875
0.0909576416015625
0.0917816162109375
0.0936126708984375
0.1020355224609375
0.109039306640625
0.12103271484375
0.1381988525390625
0.15087890625
0.1561431884765625
0.1555023193359375
0.1556854248046875
0.1488189697265625
0.1419525146484375
0.1450653076171875
0.1518402099609375
0.1540374755859375
0.1537628173828125
0.15106201171875
0.1437835693359375
0.14190673828125
0.1482696533203125
0.1516571044921875
0.1473541259765625
0.1404876708984375
0.1349945068359375
0.1299591064453125
0.1185150146484375
0.1078948974609375
0.096954345703125
0.0892181396484375
0.0826263427734375
0.0808868408203125
0.0850982666015625
0.0866546630859375
0.0749359130859375
0.06175231933593749
0.0570831298828125
0.0571746826171875
0.0578155517578125
0.0574493408203125
0.0499420166015625
0.0393218994140625
0.026275634765625
0.0099334716796875
-0.0015106201171875
-0.0121307373046875
-0.02069091796875
-0.0211029052734375
-0.0219268798828125
-0.0255889892578125
-0.0343780517578125
-0.0393218994140625
-0.037628173828125
-0.0338287353515625
-0.0303497314453125
-0.0282440185546875
-0.02618408203125
-0.0229339599609375
-0.02288818359375
-0.0186309814453125
-0.014373779296875
-0.0109405517578125
-0.0074615478515625
-0.0053558349609375
-0.0112152099609375
-0.0187225341796875
-0.02398681640625
-0.02471923828125
-0.022979736328125
-0.0195465087890625
-0.024627685546875
-0.029754638671875
-0.0318145751953125
-0.0298004150390625
-0.0293426513671875
-0.0195465087890625
-0.0052642822265625
0.0065460205078125
0.0181732177734375
0.0449981689453125
0.07781982421875
0.1064300537109375
0.14080810546875
0.17303466796875
0.2093353271484375
0.24531555175781253
0.2617034912109375
0.25103759765625
0.231719970703125
0.224945068359375
0.24627685546875
0.26385498046875
0.2888946533203125
0.3148956298828125
0.3387908935546875
0.3733062744140625
0.4441680908203125
0.5608978271484375
0.6738739013671875
0.7017059326171875
0.6313018798828125
0.5423126220703125
0.4539642333984375
0.378936767578125
0.32904052734375
0.3430938720703125
0.4049835205078125
0.4565277099609375
0.4742889404296875
0.4551544189453125
0.4123077392578125
0.3553619384765625
0.3012542724609375
0.2606048583984375
0.2391357421875
0.2331390380859375
0.2160186767578125
0.1851654052734375
0.1497344970703125
0.1084442138671875
0.0636749267578125
0.02069091796875
-0.0143280029296875
-0.0394134521484375
-0.0579071044921875
-0.07415771484375
-0.0869293212890625
-0.1010284423828125
-0.1135711669921875
-0.1285858154296875
-0.1421356201171875
-0.1516571044921875
-0.1610870361328125
-0.163421630859375
-0.165985107421875
-0.167266845703125
-0.1681365966796875
-0.1695098876953125
-0.167633056640625
-0.1643829345703125
-0.1615447998046875
-0.15838623046875
-0.15728759765625
-0.1542205810546875
-0.1519317626953125
-0.1582489013671875
-0.17633056640625
-0.198577880859375
-0.2150115966796875
-0.2191314697265625
-0.22357177734375
-0.2286529541015625
-0.2335052490234375
-0.2412872314453125
-0.24513244628906253
-0.24151611328125
-0.2400054931640625
-0.236114501953125
-0.2282867431640625
-0.22100830078125
-0.2193145751953125
-0.215423583984375
-0.211029052734375
-0.20965576171875
-0.2100677490234375
-0.2124481201171875
-0.2125396728515625
-0.212310791015625
-0.2066802978515625
-0.2102508544921875
-0.2238922119140625
-0.2398223876953125
-0.2651824951171875
-0.2859649658203125
-0.2874298095703125
-0.2757110595703125
-0.2509918212890625
-0.2299346923828125
-0.2185821533203125
-0.2109832763671875
-0.2004547119140625
-0.18988037109375
-0.1858062744140625
-0.1829681396484375
-0.1797637939453125
-0.1685943603515625
-0.157196044921875
-0.1463470458984375
-0.1400299072265625
-0.139801025390625
-0.14190673828125
-0.1414947509765625
-0.1422271728515625
-0.1422271728515625
-0.1468048095703125
-0.1457061767578125
-0.141815185546875
-0.1356353759765625
-0.1352691650390625
-0.1345367431640625
-0.131561279296875
-0.1278533935546875
-0.12872314453125
-0.126617431640625
-0.1154022216796875
-0.1030426025390625
-0.1007537841796875
-0.11334228515625
-0.1251983642578125
-0.1270294189453125
-0.12208557128906249
-0.1162261962890625
-0.1121063232421875
-0.1014404296875
-0.09375
-0.0944366455078125
-0.1029510498046875
-0.1096343994140625
-0.1209869384765625
-0.131744384765625
-0.12506103515625
-0.1100006103515625
-0.108306884765625
-0.1072540283203125
-0.1029510498046875
-0.1004791259765625
-0.0978240966796875
-0.0941619873046875
-0.096588134765625
-0.107208251953125
-0.1149444580078125
-0.1173248291015625
-0.12066650390625
-0.1181488037109375
-0.1107330322265625
-0.1110076904296875
-0.1153106689453125
-0.1201629638671875
-0.12615966796875
-0.12799072265625
-0.128631591796875
-0.1284027099609375
-0.1307373046875
-0.1327972412109375
-0.1244659423828125
-0.1208038330078125
-0.1186981201171875
-0.1142120361328125
-0.1128387451171875
-0.1165924072265625
-0.115814208984375
-0.1155853271484375
-0.11846923828125
-0.1229095458984375
-0.1216278076171875
-0.1179656982421875
-0.1082611083984375
-0.1003875732421875
-0.0905914306640625
-0.0841827392578125
-0.0824432373046875
-0.078369140625
-0.0700836181640625
-0.0612030029296875
-0.0565338134765625
-0.0579071044921875
-0.0631256103515625
-0.0678863525390625
-0.0715484619140625
-0.069305419921875
-0.0625762939453125
-0.06175231933593749
-0.05950927734375
-0.0558013916015625
-0.0527801513671875
-0.0510406494140625
-0.04888916015625
-0.0417022705078125
-0.0393218994140625
-0.0283355712890625
-0.0146026611328125
-0.0092010498046875
-0.00750732421875
0.0008697509765625
0.00567626953125
0.007232666015625
0.00604248046875
0.0102081298828125
0.0226593017578125
0.03826904296875
0.052001953125
0.0649566650390625
0.0753936767578125
0.0816192626953125
0.0853729248046875
0.0850067138671875
0.0775909423828125
0.07525634765625
0.07965087890625
0.0871124267578125
0.0923309326171875
0.0984649658203125
0.0966339111328125
0.0871124267578125
0.0783233642578125
0.0771331787109375
0.07489013671875
0.0739288330078125
0.0699005126953125
0.0695343017578125
0.0677490234375
0.064910888671875
0.06683349609375
0.0684356689453125
0.0677032470703125
0.0648651123046875
0.0568084716796875
0.04998779296875
0.0500335693359375
0.0475616455078125
0.0492095947265625
0.0482025146484375
0.05328369140625
0.0556182861328125
0.05291748046875
0.0476531982421875
0.0430755615234375
0.034332275390625
0.026641845703125
0.0222930908203125
0.0189056396484375
0.0200042724609375
0.0261383056640625
0.0319061279296875
0.03643798828125
0.0395965576171875
0.0413360595703125
0.0449066162109375
0.0467376708984375
0.0422515869140625
0.031036376953124997
0.0236663818359375
0.0209197998046875
0.023529052734375
0.02838134765625
0.030670166015624997
0.0325469970703125
0.0332794189453125
0.0350189208984375
0.0337371826171875
0.0330047607421875
0.0336456298828125
0.0344696044921875
0.0310821533203125
0.026458740234375
0.0255889892578125
0.0215606689453125
0.01629638671875
0.01593017578125
0.01336669921875
0.0130462646484375
0.0120849609375
0.0113067626953125
0.0178070068359375
0.0277862548828125
0.0332794189453125
0.0413360595703125
0.0479278564453125
0.04449462890625
0.0404205322265625
0.035247802734375
0.0267791748046875
0.02398681640625
0.0238494873046875
0.025543212890625
0.0304412841796875
0.021881103515625
0.0039825439453125
-0.0071868896484375
-0.0102081298828125
-0.0041656494140625
0.0027008056640625
-0.00128173828125
-0.0092926025390625
-0.0142364501953125
-0.01446533203125
-0.009063720703125
0.0016021728515625
0.0082855224609375
0.0110321044921875
0.0133209228515625
0.0208282470703125
0.0254974365234375
0.0244903564453125
0.0243988037109375
0.0229339599609375
0.0211029052734375
0.01995849609375
0.01885986328125
0.0220184326171875
0.0244903564453125
0.0271453857421875
0.0340118408203125
0.0391387939453125
0.0412445068359375
0.0394134521484375
0.0352020263671875
0.0332794189453125
0.0333709716796875
0.03790283203125
0.0420684814453125
0.0436248779296875
0.0425262451171875
0.0410614013671875
0.0387725830078125
0.035980224609375
0.0341033935546875
0.0317230224609375
0.02984619140625
0.031036376953124997
0.0349273681640625
0.045867919921875
0.0491180419921875
0.0490264892578125
0.0482940673828125
0.04559326171875
0.0446319580078125
0.04119873046875
0.0308990478515625
0.02398681640625
0.0231170654296875
0.0219268798828125
0.0157928466796875
0.01171875
0.01007080078125
0.0091094970703125
0.0097503662109375
0.0133209228515625
0.0159759521484375
0.01409912109375
0.0102081298828125
0.0112152099609375
0.0212860107421875
0.0333709716796875
0.0350189208984375
0.031173706054687503
0.0267791748046875
0.0284271240234375
0.0342864990234375
0.0325469970703125
0.028656005859375
0.02252197265625
0.0229339599609375
0.0310821533203125
0.03826904296875
0.0416107177734375
0.0409698486328125
0.0398712158203125
0.0329132080078125
0.02545166015625
0.0239410400390625
0.0286102294921875
0.0348358154296875
0.0401458740234375
0.0415191650390625
0.0376739501953125
0.0333709716796875
0.0255889892578125
0.0190887451171875
0.0132293701171875
0.0106658935546875
0.0111236572265625
0.0087890625
0.0086517333984375
0.0031585693359375
-0.001190185546875
-0.0004119873046875
0.0074615478515625
0.0139617919921875
0.01922607421875
0.02618408203125
0.030990600585937503
0.0397796630859375
0.0490264892578125
0.0566253662109375
0.0596466064453125
0.0602874755859375
0.0583648681640625
0.0548858642578125
0.0542449951171875
0.0580902099609375
0.0703582763671875
0.0880279541015625
0.0957183837890625
0.09814453125
0.1017608642578125
0.1000213623046875
0.1021270751953125
0.1130218505859375
0.12615966796875
0.1364593505859375
0.1436920166015625
0.1509246826171875
0.1620941162109375
0.1732177734375
0.1767425537109375
0.16754150390625
0.1598968505859375
0.1515655517578125
0.1448822021484375
0.1360931396484375
0.1291351318359375
0.125335693359375
0.1269378662109375
0.1291351318359375
0.12249755859375001
0.1112823486328125
0.1026763916015625
0.0996551513671875
0.0967254638671875
0.08917236328125
0.0778656005859375
0.0686187744140625
0.0625762939453125
0.06463623046875
0.0634002685546875
0.0576324462890625
0.0425262451171875
0.01849365234375
0.0043487548828125
-0.0043487548828125
-0.015380859375
-0.0289764404296875
-0.0358428955078125
-0.0346527099609375
-0.0289764404296875
-0.0250396728515625
-0.0244903564453125
-0.0237579345703125
-0.0288848876953125
-0.0358428955078125
-0.0424346923828125
-0.0482940673828125
-0.0495758056640625
-0.0538787841796875
-0.063446044921875
-0.0685272216796875
-0.07086181640625
-0.0700836181640625
-0.0673370361328125
-0.0633087158203125
-0.0625762939453125
-0.0627593994140625
-0.0634918212890625
-0.0670623779296875
-0.06463623046875
-0.0597381591796875
-0.0568084716796875
-0.0582733154296875
-0.05950927734375
-0.055938720703125
-0.050537109375
-0.056488037109375
-0.0663299560546875
-0.0710906982421875
-0.0794219970703125
-0.08734130859375
-0.08843994140625
-0.0872955322265625
-0.08551025390625
-0.082672119140625
-0.07635498046875
-0.0553436279296875
-0.0184478759765625
0.018951416015625
0.0525054931640625
0.0859222412109375
0.1285858154296875
0.1662139892578125
0.1863555908203125
0.1819610595703125
0.1703338623046875
0.1635589599609375
0.1688690185546875
0.1798553466796875
0.19940185546875
0.2265472412109375
0.24833679199218747
0.2870635986328125
0.36968994140625
0.4798736572265625
0.5511932373046875
0.5118255615234375
0.4188079833984375
0.3300018310546875
0.2500762939453125
0.1833343505859375
0.16021728515625
0.200958251953125
0.271636962890625
0.3177337646484375
0.3297271728515625
0.3101348876953125
0.2776336669921875
0.2474212646484375
0.2225189208984375
0.2014617919921875
0.19390869140625
0.188232421875
0.1674041748046875
0.136871337890625
0.0911407470703125
0.0341033935546875
-0.02032470703125
-0.058319091796875
-0.0882110595703125
-0.118377685546875
-0.1407623291015625
-0.1515655517578125
-0.1586151123046875
-0.1676788330078125
-0.1748199462890625
-0.1793060302734375
-0.1833343505859375
-0.19134521484375
-0.200958251953125
-0.2042999267578125
-0.2053985595703125
-0.20928955078125
-0.2118072509765625
-0.2143707275390625
-0.2147369384765625
-0.215057373046875
-0.212677001953125
-0.2099761962890625
-0.20489501953125
-0.1963348388671875
-0.1929931640625
-0.1955108642578125
-0.1964263916015625
-0.19903564453125
-0.2008209228515625
-0.1985321044921875
-0.1951904296875
-0.1951446533203125
-0.1973419189453125
-0.2050323486328125
-0.2088775634765625
-0.206451416015625
-0.19866943359375
-0.1908416748046875
-0.18878173828125
-0.1916656494140625
-0.1919403076171875
-0.1891937255859375
-0.18035888671875
-0.1693267822265625
-0.1632843017578125
-0.164154052734375
-0.16864013671875
-0.1692352294921875
-0.166259765625
-0.1659393310546875
-0.170562744140625
-0.1753692626953125
-0.1748199462890625
-0.17120361328125
-0.1707000732421875
-0.17266845703125
-0.1726226806640625
-0.1717529296875
-0.1706085205078125
-0.16864013671875
-0.1666717529296875
-0.16571044921875
-0.1601715087890625
-0.1517486572265625
-0.14337158203125
-0.1386566162109375
-0.1341705322265625
-0.1321563720703125
-0.1389312744140625
-0.1482696533203125
-0.1575164794921875
-0.1620025634765625
-0.1593475341796875
-0.1533966064453125
-0.1472625732421875
-0.1422271728515625
-0.13824462890625
-0.1312408447265625
-0.1283111572265625
-0.1275787353515625
-0.1264801025390625
-0.127166748046875
-0.1258392333984375
-0.12263488769531251
-0.1223602294921875
-0.1278533935546875
-0.1376495361328125
-0.1446990966796875
-0.15216064453125
-0.1545867919921875
-0.1552276611328125
-0.156280517578125
-0.1542205810546875
-0.1522979736328125
-0.1484527587890625
-0.142547607421875
-0.1349945068359375
-0.1301422119140625
-0.126068115234375
-0.1271209716796875
-0.1304168701171875
-0.1321563720703125
-0.133209228515625
-0.1366424560546875
-0.1369171142578125
-0.1365509033203125
-0.1377410888671875
-0.13531494140625
-0.13494873046875
-0.1391143798828125
-0.1466217041015625
-0.157745361328125
-0.1676788330078125
-0.1725311279296875
-0.1750030517578125
-0.18145751953125
-0.1904754638671875
-0.1934967041015625
-0.1891937255859375
-0.1836090087890625
-0.17999267578125
-0.1776580810546875
-0.1791229248046875
-0.1847991943359375
-0.18585205078125
-0.185302734375
-0.183837890625
-0.1767425537109375
-0.1742706298828125
-0.1758270263671875
-0.1770172119140625
-0.1750030517578125
-0.1750030517578125
-0.17742919921875
-0.1828765869140625
-0.1852569580078125
-0.1880950927734375
-0.1880035400390625
-0.1836090087890625
-0.17816162109375
-0.17303466796875
-0.16424560546875
-0.1527557373046875
-0.141082763671875
-0.1345367431640625
-0.1326141357421875
-0.1278533935546875
-0.1242828369140625
-0.1198883056640625
-0.1153564453125
-0.107574462890625
-0.09429931640625
-0.0792388916015625
-0.0742034912109375
-0.0696258544921875
-0.0576324462890625
-0.0399627685546875
-0.0307159423828125
-0.031173706054687503
-0.0366668701171875
-0.0351104736328125
-0.0263214111328125
-0.0186309814453125
-0.0135955810546875
-0.0099334716796875
-0.0102081298828125
-0.0070953369140625
-0.0027923583984375
0.0031585693359375
0.011810302734375
0.0143280029296875
0.0157928466796875
0.021514892578125
0.0299835205078125
0.0340118408203125
0.0300750732421875
0.027557373046875
0.0307159423828125
0.0343780517578125
0.0373077392578125
0.03753662109375
0.0381317138671875
0.0413360595703125
0.047332763671875
0.0541534423828125
0.0536041259765625
0.05072021484375
0.0488433837890625
0.0471954345703125
0.04522705078125
0.04119873046875
0.0390472412109375
0.0399627685546875
0.040191650390625
0.0381317138671875
0.0337371826171875
0.0317230224609375
0.0330047607421875
0.0346527099609375
0.0333709716796875
0.0303497314453125
0.0273284912109375
0.0269622802734375
0.0301666259765625
0.0301666259765625
0.0312652587890625
0.0330047607421875
0.03277587890625
0.028106689453125
0.0247650146484375
0.0209197998046875
0.0185394287109375
0.0170745849609375
0.01116943359375
0.0061798095703125
0.0016937255859375
0.0005035400390625
-4.57763671875e-05
0.00384521484375
0.0090179443359375
0.0106658935546875
0.009979248046875
0.0032958984375
-0.00128173828125
-0.0019683837890625
-0.0011444091796875
-0.00054931640625
0.0026092529296875
0.007049560546875
0.01373291015625
0.01519775390625
0.01043701171875
0.0054473876953125
0.0010528564453125
-0.0070037841796875
-0.0127716064453125
-0.0176239013671875
-0.0198211669921875
-0.0188140869140625
-0.0216522216796875
-0.0233917236328125
-0.0244903564453125
-0.0228424072265625
-0.016754150390625
-0.0085601806640625
0.0015106201171875
0.00714111328125
0.0036163330078125
4.57763671875e-05
-0.0007781982421875
0.0030670166015625
0.0061798095703125
0.00457763671875
0.0073699951171875
0.0167999267578125
0.0196380615234375
0.0190887451171875
0.0150604248046875
0.0080108642578125
0.0025177001953125
-0.0007781982421875
0.0
0.0067291259765625
0.01519775390625
0.0150604248046875
0.0106201171875
0.0091094970703125
0.0081024169921875
0.0087890625
0.00933837890625
0.0078277587890625
0.0062713623046875
0.005584716796875
0.0061798095703125
0.0081024169921875
0.0070953369140625
0.0031585693359375
0.0032501220703125
0.0039825439453125
0.006683349609375
0.0075531005859375
0.0075531005859375
0.0059967041015625
0.003021240234375
0.0011444091796875
0.0005035400390625
0.00091552734375
-0.0018768310546875
-0.002838134765625
0.0005950927734375
-0.0008697509765625
-0.0042572021484375
-0.008514404296875
-0.00677490234375
-0.0032501220703125
-0.00201416015625
-0.0045318603515625
-0.0045318603515625
-0.0106201171875
-0.025909423828125
-0.03094482421875
-0.02288818359375
-0.0152435302734375
-0.0111236572265625
-0.005126953125
-0.002197265625
-0.0034332275390625
-0.0007781982421875
0.0073699951171875
0.01263427734375
0.0087890625
-0.0067291259765625
-0.0205535888671875
-0.02947998046875
-0.03204345703125
-0.033416748046875
-0.0349273681640625
-0.03204345703125
-0.0265960693359375
-0.0227508544921875
-0.0158843994140625
-0.0081024169921875
-0.0006866455078125
0.0054473876953125
0.0057220458984375
0.0028839111328125
0.0007781982421875
-0.0004119873046875
-0.0037078857421875
-0.0106658935546875
-0.018402099609375
-0.0285186767578125
-0.0318145751953125
-0.03094482421875
-0.0321807861328125
-0.03277587890625
-0.0296173095703125
-0.02490234375
-0.02545166015625
-0.02178955078125
-0.0194549560546875
-0.0195465087890625
-0.0198211669921875
-0.0231170654296875
-0.0271453857421875
-0.0274200439453125
-0.0260009765625
-0.0196380615234375
-0.0140533447265625
-0.0100250244140625
-0.0086517333984375
-0.0072784423828125
-0.0062713623046875
-0.00933837890625
-0.015609741210937498
-0.0214691162109375
-0.026458740234375
-0.0342864990234375
-0.038177490234375
-0.0384063720703125
-0.038543701171875
-0.0393218994140625
-0.0393218994140625
-0.0392303466796875
-0.0373992919921875
-0.0344696044921875
-0.0343780517578125
-0.033782958984375
-0.0341033935546875
-0.0308990478515625
-0.0304412841796875
-0.03497314453125
-0.037628173828125
-0.036712646484375
-0.036895751953125
-0.0380401611328125
-0.0417022705078125
-0.04046630859375
-0.0371246337890625
-0.036163330078125
-0.043853759765625
-0.0569915771484375
-0.066650390625
-0.0672454833984375
-0.0635833740234375
-0.0584564208984375
-0.0546112060546875
-0.0524139404296875
-0.0510406494140625
-0.0498504638671875
-0.0494842529296875
-0.04852294921875
-0.0432586669921875
-0.03826904296875
-0.0395965576171875
-0.0439910888671875
-0.0526885986328125
-0.0545196533203125
-0.0539703369140625
-0.0598297119140625
-0.0604705810546875
-0.05657958984375
-0.0515899658203125
-0.0499420166015625
-0.0465545654296875
-0.0432586669921875
-0.040008544921875
-0.0405120849609375
-0.03936767578125
-0.0334625244140625
-0.025543212890625
-0.0233001708984375
-0.0275115966796875
-0.03094482421875
-0.03204345703125
-0.0312652587890625
-0.0310821533203125
-0.031951904296875
-0.027099609375
-0.015472412109375
-0.0048980712890625
0.0034332275390625
0.0119476318359375
0.0193634033203125
0.017669677734375
0.0205535888671875
0.0301666259765625
0.0362548828125
0.0485687255859375
0.0589141845703125
0.06756591796875
0.0737457275390625
0.0716400146484375
0.06829833984375
0.0703582763671875
0.0720062255859375
0.06211853027343749
0.0438995361328125
0.03076171875
0.0274200439453125
0.025543212890625
0.0292510986328125
0.0321807861328125
0.032501220703125
0.03424072265625
0.031173706054687503
0.0256805419921875
0.0182647705078125
0.0093841552734375
0.0017852783203125
-0.0048065185546875
-0.0105743408203125
-0.020233154296875
-0.03131103515625
-0.0439910888671875
-0.0578155517578125
-0.0720977783203125
-0.0826263427734375
-0.0924224853515625
-0.099334716796875
-0.10015869140625
-0.0999298095703125
-0.100799560546875
-0.1029510498046875
-0.1085357666015625
-0.1140289306640625
-0.1110076904296875
-0.1059722900390625
-0.10638427734375
-0.1125640869140625
-0.123687744140625
-0.1354522705078125
-0.1351776123046875
-0.1341705322265625
-0.1344451904296875
-0.1368255615234375
-0.134674072265625
-0.12982177734375
-0.1288604736328125
-0.1323394775390625
-0.1339874267578125
-0.1326141357421875
-0.1341705322265625
-0.140625
-0.149139404296875
-0.15252685546875
-0.1576080322265625
-0.1644744873046875
-0.1728515625
-0.1720733642578125
-0.1692352294921875
-0.1685028076171875
-0.17047119140625
-0.1728057861328125
-0.170562744140625
-0.163604736328125
-0.1541290283203125
-0.1447906494140625
-0.1383819580078125
-0.1201629638671875
-0.0894012451171875
-0.0578155517578125
-0.0282440185546875
0.00146484375
0.0281524658203125
0.05731201171875
0.0818939208984375
0.091278076171875
0.0826263427734375
0.074798583984375
0.0768585205078125
0.0812530517578125
0.0885772705078125
0.1058807373046875
0.1379241943359375
0.171844482421875
0.2283782958984375
0.3311920166015625
0.4431610107421875
0.4788665771484375
0.4100189208984375
0.3027191162109375
0.20672607421875
0.1181488037109375
0.0509490966796875
0.04486083984375
0.0988311767578125
0.1643829345703125
0.2024688720703125
0.2113494873046875
0.1991729736328125
0.1727142333984375
0.1465301513671875
0.1276702880859375
0.1245574951171875
0.12492370605468749
0.115997314453125
0.0890350341796875
0.0518646240234375
0.0068206787109375
-0.0428924560546875
-0.0970916748046875
-0.1422271728515625
-0.1764678955078125
-0.1994476318359375
-0.2105712890625
-0.2152862548828125
-0.2174835205078125
-0.2226104736328125
-0.2287445068359375
-0.2357025146484375
-0.2412872314453125
-0.2456817626953125
-0.2527313232421875
-0.2618865966796875
-0.2657318115234375
-0.2655487060546875
-0.2682037353515625
-0.2715911865234375
-0.275115966796875
-0.2824859619140625
-0.2866058349609375
-0.2852325439453125
-0.2833099365234375
-0.2783660888671875
-0.273651123046875
-0.2713165283203125
-0.2724151611328125
-0.2729644775390625
-0.2731475830078125
-0.2718658447265625
-0.26898193359375
-0.2661895751953125
-0.2684783935546875
-0.2708587646484375
-0.2681121826171875
-0.2614288330078125
-0.2460479736328125
-0.235015869140625
-0.2398223876953125
-0.259368896484375
-0.279144287109375
-0.2920074462890625
-0.294891357421875
-0.2937469482421875
-0.2904510498046875
-0.2823944091796875
-0.2698516845703125
-0.261199951171875
-0.2539215087890625
-0.2460479736328125
-0.2422943115234375
-0.24517822265625003
-0.24851989746093747
-0.2551116943359375
-0.2603302001953125
-0.2584991455078125
-0.2534637451171875
-0.24664306640625003
-0.240509033203125
-0.2365264892578125
-0.2378082275390625
-0.2421112060546875
-0.2471466064453125
-0.24696350097656247
-0.2402801513671875
-0.2332305908203125
-0.2247161865234375
-0.2161102294921875
-0.2116241455078125
-0.2096099853515625
-0.208740234375
-0.2084197998046875
-0.20855712890625
-0.20928955078125
-0.2125396728515625
-0.2164306640625
-0.21588134765625
-0.2108001708984375
-0.20306396484375
-0.1960601806640625
-0.1993560791015625
-0.201873779296875
-0.20416259765625
-0.2061309814453125
-0.2112579345703125
-0.2148284912109375
-0.211029052734375
-0.207183837890625
-0.2046661376953125
-0.2037506103515625
-0.2032928466796875
-0.20782470703125
-0.21441650390625
-0.21844482421875
-0.2183074951171875
-0.2178955078125
-0.2229766845703125
-0.2318115234375
-0.2351531982421875
-0.2272796630859375
-0.227691650390625
-0.23126220703125
-0.23492431640625
-0.2377166748046875
-0.2359771728515625
-0.2345123291015625
-0.2341461181640625
-0.2363433837890625
-0.241790771484375
-0.24531555175781253
-0.24504089355468753
-0.2446746826171875
-0.24664306640625003
-0.2505340576171875
-0.2562103271484375
-0.259185791015625
-0.258270263671875
-0.25433349609375
-0.24884033203125
-0.24664306640625003
-0.2459564208984375
-0.243072509765625
-0.2435760498046875
-0.2413787841796875
-0.2338714599609375
-0.2308502197265625
-0.2326812744140625
-0.2386322021484375
-0.23858642578125
-0.2413330078125
-0.2403717041015625
-0.2392730712890625
-0.2368011474609375
-0.2316741943359375
-0.22796630859375
-0.23126220703125
-0.2313995361328125
-0.2324981689453125
-0.2354278564453125
-0.234100341796875
-0.2273712158203125
-0.2254486083984375
-0.2292938232421875
-0.2256317138671875
-0.2189483642578125
-0.21002197265625
-0.2025604248046875
-0.1900634765625
-0.1773834228515625
-0.1691436767578125
-0.1663970947265625
-0.1657562255859375
-0.1589813232421875
-0.1440582275390625
-0.1299591064453125
-0.12359619140625
-0.1164093017578125
-0.10986328125
-0.1066131591796875
-0.10235595703125
-0.0961761474609375
-0.0872039794921875
-0.0797882080078125
-0.0760345458984375
-0.0759429931640625
-0.0684814453125
-0.0584564208984375
-0.0501251220703125
-0.048248291015625
-0.0454559326171875
-0.0441741943359375
-0.043670654296875
-0.046051025390625
-0.046966552734375
-0.0409698486328125
-0.0304412841796875
-0.0189971923828125
-0.014739990234375
-0.00897216796875
0.0021514892578125
0.01080322265625
0.008331298828125
0.005401611328125
0.0029754638671875
0.0005950927734375
0.0004119873046875
-0.0026092529296875
-0.0059051513671875
-0.001007080078125
0.0006866455078125
-0.0037078857421875
-0.005584716796875
-0.0098419189453125
-0.0092926025390625
-0.0074615478515625
-0.007781982421875
-0.0098419189453125
-0.015289306640625
-0.0201873779296875
-0.0198211669921875
-0.0170745849609375
-0.0160675048828125
-0.0165252685546875
-0.0203704833984375
-0.0266876220703125
-0.0307159423828125
-0.0345611572265625
-0.0352935791015625
-0.036346435546875
-0.0366668701171875
-0.0379486083984375
-0.03460693359375
-0.0293426513671875
-0.0274200439453125
-0.0293426513671875
-0.0303955078125
-0.02471923828125
-0.0179901123046875
-0.0215606689453125
-0.030487060546875
-0.035980224609375
-0.040557861328125
-0.0422515869140625
-0.0443572998046875
-0.0440826416015625
-0.0428924560546875
-0.0393218994140625
-0.0314483642578125
-0.028106689453125
-0.0275115966796875
-0.0299835205078125
-0.0305328369140625
-0.0330047607421875
-0.0384979248046875
-0.04705810546875
-0.0501251220703125
-0.051910400390625
-0.0537872314453125
-0.0550689697265625
-0.0493927001953125
-0.0418853759765625
-0.0409698486328125
-0.04119873046875
-0.046051025390625
-0.0490264892578125
-0.0463714599609375
-0.0426177978515625
-0.040374755859375
-0.0384063720703125
-0.0349273681640625
-0.0349273681640625
-0.03607177734375
-0.0342864990234375
-0.034332275390625
-0.0341033935546875
-0.034332275390625
-0.0357513427734375
-0.03460693359375
-0.0335540771484375
-0.0352020263671875
-0.0381317138671875
-0.03790283203125
-0.0392303466796875
-0.0449981689453125
-0.0477447509765625
-0.043304443359375
-0.0403289794921875
-0.0396881103515625
-0.0390472412109375
-0.036529541015625
-0.0340118408203125
-0.030853271484374997
-0.0296630859375
-0.0318603515625
-0.0319061279296875
-0.029571533203125
-0.0246734619140625
-0.0239410400390625
-0.0271453857421875
-0.0296173095703125
-0.028839111328125
-0.03057861328125
-0.03204345703125
-0.0323638916015625
-0.0314483642578125
-0.03167724609375
-0.0341949462890625
-0.0377655029296875
-0.0377197265625
-0.0402374267578125
-0.045135498046875
-0.0482940673828125
-0.0429840087890625
-0.0403289794921875
-0.0406036376953125
-0.0455474853515625
-0.0514984130859375
-0.0502166748046875
-0.0461883544921875
-0.0437164306640625
-0.0442657470703125
-0.045318603515625
-0.0458221435546875
-0.0438995361328125
-0.0386810302734375
-0.0385894775390625
-0.041015625
-0.0403289794921875
-0.04156494140625
-0.0415191650390625
-0.0440826416015625
-0.0480194091796875
-0.046234130859375
-0.04339599609375
-0.0453643798828125
-0.0513153076171875
-0.053924560546875
-0.05438232421875
-0.0536041259765625
-0.0509490966796875
-0.0471954345703125
-0.0464630126953125
-0.04229736328125
-0.0393218994140625
-0.0428924560546875
-0.04705810546875
-0.04852294921875
-0.04632568359375
-0.0417022705078125
-0.03936767578125
-0.0432586669921875
-0.0481109619140625
-0.0506744384765625
-0.0439910888671875
-0.0358428955078125
-0.0320892333984375
-0.032135009765625
-0.0353851318359375
-0.0347442626953125
-0.0329132080078125
-0.0333709716796875
-0.0329132080078125
-0.0325469970703125
-0.0315399169921875
-0.0321807861328125
-0.03662109375
-0.04229736328125
-0.0445404052734375
-0.0438079833984375
-0.0406951904296875
-0.03790283203125
-0.0377197265625
-0.04339599609375
-0.0481109619140625
-0.0528717041015625
-0.0587310791015625
-0.0638580322265625
-0.0634918212890625
-0.0548858642578125
-0.0446319580078125
-0.0399627685546875
-0.0356597900390625
-0.0316314697265625
-0.0276031494140625
-0.0258636474609375
-0.0252227783203125
-0.0263671875
-0.0275115966796875
-0.03057861328125
-0.0330047607421875
-0.030807495117187503
-0.02691650390625
-0.0249481201171875
-0.0226593017578125
-0.0214691162109375
-0.0252227783203125
-0.0311279296875
-0.0355682373046875
-0.0409698486328125
-0.0435791015625
-0.0429840087890625
-0.0430755615234375
-0.0443572998046875
-0.0476531982421875
-0.05035400390625
-0.046417236328125
-0.04083251953125
-0.0435333251953125
-0.0454559326171875
-0.0446319580078125
-0.0426177978515625
-0.04083251953125
-0.04266357421875
-0.04156494140625
-0.039825439453125
-0.0396881103515625
-0.040924072265625
-0.0414276123046875
-0.03936767578125
-0.0388641357421875
-0.0368499755859375
-0.0371246337890625
-0.0348358154296875
-0.0319976806640625
-0.0304412841796875
-0.0292510986328125
-0.0334625244140625
-0.0359344482421875
-0.0327301025390625
-0.0285186767578125
-0.025634765625
-0.0245819091796875
-0.026275634765625
-0.0272369384765625
-0.0296173095703125
-0.0362091064453125
-0.0409698486328125
-0.04852294921875
-0.0545196533203125
-0.0538787841796875
-0.05145263671875
-0.05072021484375
-0.0438079833984375
-0.0332794189453125
-0.0232086181640625
-0.01593017578125
-0.014923095703125
-0.0111236572265625
-0.006683349609375
-0.0022430419921875
-0.0014190673828125
-0.00531005859375
-0.0095672607421875
-0.00897216796875
-0.0075531005859375
-0.0047149658203125
-0.001190185546875
-0.0012359619140625
0.00201416015625
0.006500244140625
0.0108489990234375
0.0161590576171875
0.0174407958984375
0.0215606689453125
0.0292510986328125
0.033966064453125
0.0409698486328125
0.04412841796875
0.0364837646484375
0.0271453857421875
0.0174407958984375
0.013641357421875
0.018035888671875
0.0259552001953125
0.0292510986328125
0.0269622802734375
0.02508544921875
0.0222930908203125
0.0193634033203125
0.0106201171875
0.006866455078125
0.0057220458984375
-0.0004119873046875
-0.0142364501953125
-0.0230255126953125
-0.027374267578125
-0.0286102294921875
-0.0312652587890625
-0.0308990478515625
-0.0300750732421875
-0.03277587890625
-0.0347442626953125
-0.0323638916015625
-0.037078857421875
-0.0405120849609375
-0.0413360595703125
-0.0383148193359375
-0.03973388671875
-0.04669189453125
-0.05145263671875
-0.0486602783203125
-0.0469207763671875
-0.0473785400390625
-0.0506744384765625
-0.0543365478515625
-0.0522308349609375
-0.0484771728515625
-0.0452728271484375
-0.0449981689453125
-0.0462799072265625
-0.0480194091796875
-0.0512237548828125
-0.0521392822265625
-0.0517730712890625
-0.04815673828125
-0.0508575439453125
-0.0541534423828125
-0.0523681640625
-0.0507659912109375
-0.04742431640625
-0.0445404052734375
-0.0463714599609375
-0.04486083984375
-0.04412841796875
-0.04779052734375
-0.0516815185546875
-0.05255126953125
-0.0568084716796875
-0.0581817626953125
-0.0579071044921875
-0.062713623046875
-0.0700836181640625
-0.0743865966796875
-0.0696258544921875
-0.0614776611328125
-0.053741455078125
-0.045135498046875
-0.0276031494140625
0.006317138671875
0.04156494140625
0.077911376953125
0.1106414794921875
0.1465301513671875
0.190887451171875
0.22467041015625
0.2342376708984375
0.2258148193359375
0.2162933349609375
0.21917724609375
0.2284698486328125
0.2406463623046875
0.2590484619140625
0.2855072021484375
0.3234100341796875
0.3888702392578125
0.4887542724609375
0.6111602783203125
0.6889801025390625
0.6513519287109375
0.5588836669921875
0.4634857177734375
0.3708343505859375
0.2953948974609375
0.2757110595703125
0.3200225830078125
0.3798065185546875
0.4140472412109375
0.4074554443359375
0.37408447265625
0.3224945068359375
0.2741546630859375
0.2316741943359375
0.1953277587890625
0.1772003173828125
0.1667633056640625
0.1491851806640625
0.1153106689453125
0.0690765380859375
0.0241241455078125
-0.0123138427734375
-0.044586181640625
-0.0702667236328125
-0.0812530517578125
-0.0849151611328125
-0.08880615234375
-0.0988311767578125
-0.1068878173828125
-0.12345886230468749
-0.1511993408203125
-0.1777496337890625
-0.1897430419921875
-0.1857147216796875
-0.177886962890625
-0.1761932373046875
-0.1788482666015625
-0.1758270263671875
-0.169830322265625
-0.1648406982421875
-0.1628265380859375
-0.1623687744140625
-0.16314697265625
-0.1630096435546875
-0.1647491455078125
-0.166900634765625
-0.16900634765625
-0.1714324951171875
-0.1748199462890625
-0.1759185791015625
-0.1776580810546875
-0.1748199462890625
-0.1729888916015625
-0.174957275390625
-0.1745452880859375
-0.1720733642578125
-0.1724395751953125
-0.1736297607421875
-0.169097900390625
-0.1663970947265625
-0.162322998046875
-0.156097412109375
-0.1528472900390625
-0.1506500244140625
-0.1476287841796875
-0.1460723876953125
-0.14410400390625
-0.1381988525390625
-0.13623046875
-0.1356353759765625
-0.13238525390625
-0.1308746337890625
-0.13604736328125
-0.1407623291015625
-0.137786865234375
-0.1318817138671875
-0.1309661865234375
-0.1342620849609375
-0.1373291015625
-0.1446990966796875
-0.14886474609375
-0.147674560546875
-0.1417694091796875
-0.138702392578125
-0.1321563720703125
-0.12281799316406249
-0.114166259765625
-0.1066131591796875
-0.102813720703125
-0.1045074462890625
-0.1087188720703125
-0.115814208984375
-0.118927001953125
-0.1151275634765625
-0.1110992431640625
-0.1148529052734375
-0.1288604736328125
-0.1363677978515625
-0.1366424560546875
-0.1336669921875
-0.128448486328125
-0.12345886230468749
-0.1182403564453125
-0.1157684326171875
-0.1121978759765625
-0.1081695556640625
-0.106475830078125
-0.1043243408203125
-0.0993804931640625
-0.09466552734375
-0.0922393798828125
-0.0951690673828125
-0.0970001220703125
-0.0957183837890625
-0.0945281982421875
-0.094207763671875
-0.0979156494140625
-0.1024017333984375
-0.1059722900390625
-0.111053466796875
-0.11773681640625
-0.1173248291015625
-0.1142578125
-0.1164093017578125
-0.11920166015625
-0.1163177490234375
-0.10528564453125
-0.0972747802734375
-0.09759521484375
-0.1021270751953125
-0.107940673828125
-0.11224365234375
-0.1168670654296875
-0.116363525390625
-0.1160888671875
-0.1169586181640625
-0.1175994873046875
-0.1180572509765625
-0.11920166015625
-0.1197967529296875
-0.1184234619140625
-0.1192474365234375
-0.12103271484375
-0.12355041503906249
-0.1265716552734375
-0.1318817138671875
-0.134124755859375
-0.13311767578125
-0.1295928955078125
-0.1256561279296875
-0.12432861328125
-0.1245574951171875
-0.1219482421875
-0.1201629638671875
-0.1184234619140625
-0.1193389892578125
-0.12327575683593751
-0.13165283203125
-0.1415863037109375
-0.14483642578125
-0.1407623291015625
-0.1321563720703125
-0.11993408203125
-0.1096343994140625
-0.0981903076171875
-0.0891265869140625
-0.0811614990234375
-0.075164794921875
-0.0719146728515625
-0.0655975341796875
-0.06134033203124999
-0.0576324462890625
-0.0520477294921875
-0.0426177978515625
-0.0331878662109375
-0.0287933349609375
-0.0243072509765625
-0.0146942138671875
-0.00238037109375
0.0072784423828125
0.0183563232421875
0.028656005859375
0.0368499755859375
0.042572021484375
0.0471038818359375
0.0464630126953125
0.0449981689453125
0.0471038818359375
0.0538787841796875
0.0586395263671875
0.0676116943359375
0.0776824951171875
0.0863800048828125
0.0926971435546875
0.095672607421875
0.1008453369140625
0.102447509765625
0.10308837890625
0.1032257080078125
0.10198974609375
0.1040496826171875
0.1050567626953125
0.1056976318359375
0.1071624755859375
0.1053314208984375
0.1016693115234375
0.1045989990234375
0.1117401123046875
0.1167755126953125
0.1196136474609375
0.1212615966796875
0.12103271484375
0.11883544921875
0.1087188720703125
0.1013031005859375
0.0957183837890625
0.0920562744140625
0.0896759033203125
0.0891265869140625
0.0911407470703125
0.0980072021484375
0.1019439697265625
0.095855712890625
0.089080810546875
0.0879364013671875
0.0904998779296875
0.090179443359375
0.0862884521484375
0.083587646484375
0.0837249755859375
0.0829010009765625
0.08038330078125
0.0749359130859375
0.0716400146484375
0.0699005126953125
0.0720977783203125
0.0767669677734375
0.0812530517578125
0.0856475830078125
0.0917816162109375
0.0894012451171875
0.0873870849609375
0.089630126953125
0.0878448486328125
0.0850067138671875
0.0786895751953125
0.072052001953125
0.0684356689453125
0.0703582763671875
0.0709991455078125
0.0671539306640625
0.0640411376953125
0.0609283447265625
0.0588226318359375
0.05841064453125
0.0570831298828125
0.0513153076171875
0.0406036376953125
0.0339202880859375
0.0375823974609375
0.0412445068359375
0.0445404052734375
0.0471038818359375
0.055023193359375
0.06207275390624999
0.0637664794921875
0.06024169921875
0.0602874755859375
0.0647735595703125
0.0644989013671875
0.0589141845703125
0.0586395263671875
0.06175231933593749
0.0608367919921875
0.06248474121093749
0.06207275390624999
0.0519561767578125
0.0428009033203125
0.0417022705078125
0.0482940673828125
0.0571746826171875
0.0632171630859375
0.0658721923828125
0.0669708251953125
0.0668792724609375
0.0687103271484375
0.0661468505859375
0.0609283447265625
0.0600128173828125
0.05859375
0.0548858642578125
0.0539703369140625
0.0550689697265625
0.0566253662109375
0.0569915771484375
0.0578155517578125
0.06060791015625
0.0639495849609375
0.0640869140625
0.0604248046875
0.054656982421875
0.0530548095703125
0.0549774169921875
0.0585479736328125
0.0604705810546875
0.0610198974609375
0.0657806396484375
0.068756103515625
0.0679779052734375
0.06175231933593749
0.0569915771484375
0.0602874755859375
0.06463623046875
0.06536865234375
0.0641326904296875
0.063446044921875
0.0635833740234375
0.064544677734375
0.0654144287109375
0.064453125
0.06683349609375
0.0710906982421875
0.0759429931640625
0.0791473388671875
0.0790557861328125
0.07763671875
0.073516845703125
0.0647735595703125
0.0588226318359375
0.059234619140625
0.0618438720703125
0.0615692138671875
0.0641326904296875
0.0635833740234375
0.06175231933593749
0.0585479736328125
0.0581817626953125
0.052642822265625
0.0497589111328125
0.0490264892578125
0.0498504638671875
0.0503997802734375
0.047607421875
0.0430755615234375
0.0454559326171875
0.049346923828125
0.0548858642578125
0.0580902099609375
0.0602874755859375
0.0600128173828125
0.057769775390625
0.0510406494140625
0.040008544921875
0.0341033935546875
0.0424346923828125
0.0510406494140625
0.0542449951171875
0.0530548095703125
0.0547943115234375
0.0573577880859375
0.0610198974609375
0.0585479736328125
0.0541534423828125
0.0510406494140625
0.048431396484375
0.0435333251953125
0.0406036376953125
0.0450897216796875
0.0520477294921875
0.05657958984375
0.0602874755859375
0.06243896484374999
0.0625762939453125
0.05877685546875
0.0489349365234375
0.04156494140625
0.0410614013671875
0.044586181640625
0.04449462890625
0.040374755859375
0.0336456298828125
0.0322723388671875
0.0368499755859375
0.0477447509765625
0.0534210205078125
0.0504913330078125
0.0454559326171875
0.0472869873046875
0.0485687255859375
0.0498504638671875
0.0545196533203125
0.0563507080078125
0.0581817626953125
0.0610198974609375
0.0639495849609375
0.06175231933593749
0.0587310791015625
0.0598297119140625
0.0612030029296875
0.0581817626953125
0.055755615234375
0.0559844970703125
0.0569915771484375
0.05804443359375
0.0605621337890625
0.0611114501953125
0.0644989013671875
0.0682525634765625
0.0661468505859375
0.0585479736328125
0.05419921875
0.0530548095703125
0.051177978515625
0.0483856201171875
0.0469207763671875
0.0479278564453125
0.0530548095703125
0.05438232421875
0.05145263671875
0.0537872314453125
0.058868408203125
0.06536865234375
0.0698089599609375
0.068206787109375
0.0666046142578125
0.0665130615234375
0.0653228759765625
0.06060791015625
0.0574493408203125
0.060333251953125
0.0583648681640625
0.0602874755859375
0.0646820068359375
0.06427001953125
0.0610198974609375
0.0573577880859375
0.05804443359375
0.0626678466796875
0.0652313232421875
0.0615692138671875
0.0552520751953125
0.0496673583984375
0.045318603515625
0.040557861328125
0.0373077392578125
0.0368499755859375
0.0395965576171875
0.0457305908203125
0.0499420166015625
0.0575408935546875
0.0662384033203125
0.068206787109375
0.0640411376953125
0.0546112060546875
0.0503997802734375
0.0512237548828125
0.04998779296875
0.0456390380859375
0.0417938232421875
0.0462799072265625
0.0505828857421875
0.0510406494140625
0.0524139404296875
0.052276611328125
0.0540618896484375
0.0568084716796875
0.05438232421875
0.0493927001953125
0.04705810546875
0.0471954345703125
0.0491180419921875
0.0499420166015625
0.0499420166015625
0.05474853515625
0.0655059814453125
0.0788726806640625
0.0780487060546875
0.0714569091796875
0.066192626953125
0.0640411376953125
0.0642242431640625
0.0652313232421875
0.0703582763671875
0.0801544189453125
0.08221435546875
0.07891845703125
0.0796966552734375
0.0829925537109375
0.0857391357421875
0.09063720703125
0.1006622314453125
0.1073455810546875
0.10711669921875
0.10968017578125
0.1157684326171875
0.1200714111328125
0.1261138916015625
0.131103515625
0.13641357421875
0.1456146240234375
0.1570587158203125
0.1674957275390625
0.175506591796875
0.1780242919921875
0.1786651611328125
0.1797637939453125
0.1842498779296875
0.1908416748046875
0.1923980712890625
0.1915740966796875
0.1899261474609375
0.184295654296875
0.1778411865234375
0.1701507568359375
0.1609954833984375
0.1545867919921875
0.1525726318359375
0.1500091552734375
0.1415863037109375
0.1313323974609375
0.1268463134765625
0.1264801025390625
0.1242828369140625
0.120391845703125
0.1143035888671875
0.1041412353515625
0.0906829833984375
0.07928466796875
0.0689849853515625
0.061065673828125
0.0560302734375
0.0552520751953125
0.0564422607421875
0.0590057373046875
0.054473876953125
0.0462799072265625
0.0438079833984375
0.0418853759765625
0.03497314453125
0.0287933349609375
0.0276947021484375
0.0230255126953125
0.01959228515625
0.0178070068359375
0.0161590576171875
0.016387939453125
0.0186309814453125
0.0189971923828125
0.016387939453125
0.014923095703125
0.0140533447265625
0.0075531005859375
-0.0007781982421875
-0.0042572021484375
-0.0039825439453125
0.0002288818359375
0.0048065185546875
0.00750732421875
0.0089263916015625
0.0094757080078125
0.0090179443359375
0.0053558349609375
0.0072784423828125
0.0120391845703125
0.0102996826171875
0.0016937255859375
-0.0073699951171875
-0.01629638671875
-0.0233001708984375
-0.0167999267578125
-0.0007781982421875
0.0076446533203125
0.0106658935546875
0.0283355712890625
0.0648193359375
0.10272216796875
0.13861083984375
0.1699676513671875
0.207366943359375
0.2461395263671875
0.2687530517578125
0.2629852294921875
0.246368408203125
0.2432098388671875
0.25909423828125
0.2790069580078125
0.3025360107421875
0.32098388671875
0.3495941162109375
0.40008544921875
0.4825286865234375
0.5988006591796875
0.7155303955078125
0.74359130859375
0.671173095703125
0.5738067626953125
0.4767608642578125
0.39715576171875
0.3536224365234375
0.3764190673828125
0.4331817626953125
0.4741973876953125
0.4761199951171875
0.4490203857421875
0.4043426513671875
0.3533477783203125
0.3079376220703125
0.26495361328125
0.2361602783203125
0.220184326171875
0.206268310546875
0.1793975830078125
0.1398468017578125
0.09100341796875
0.0460052490234375
0.01318359375
-0.012542724609375
-0.030487060546875
-0.0418853759765625
-0.0590972900390625
-0.0754852294921875
-0.0926971435546875
-0.109771728515625
-0.1190643310546875
-0.1311492919921875
-0.14410400390625
-0.1487274169921875
-0.1501007080078125
-0.1479034423828125
-0.1422271728515625
-0.1411285400390625
-0.141998291015625
-0.1446990966796875
-0.1490020751953125
-0.1490020751953125
-0.1463470458984375
-0.144927978515625
-0.1449737548828125
-0.14703369140625
-0.15069580078125
-0.1572418212890625
-0.1640167236328125
-0.1622772216796875
-0.1579742431640625
-0.15728759765625
-0.1587066650390625
-0.1572418212890625
-0.1582489013671875
-0.15838623046875
-0.1566925048828125
-0.1537628173828125
-0.1518402099609375
-0.1512908935546875
-0.1506500244140625
-0.1490020751953125
-0.1456146240234375
-0.1428680419921875
-0.135406494140625
-0.126800537109375
-0.12409973144531249
-0.12359619140625
-0.12474060058593751
-0.1309661865234375
-0.1383819580078125
-0.140167236328125
-0.13970947265625
-0.1370086669921875
-0.1341705322265625
-0.1322479248046875
-0.1293182373046875
-0.1256103515625
-0.12419128417968749
-0.12506103515625
-0.1238250732421875
-0.1212615966796875
-0.118377685546875
-0.1172332763671875
-0.1139373779296875
-0.1099090576171875
-0.10711669921875
-0.10931396484375
-0.11260986328125
-0.11553955078125
-0.1112823486328125
-0.1064300537109375
-0.1044158935546875
-0.1032257080078125
-0.1024017333984375
-0.0974578857421875
-0.0946197509765625
-0.0953521728515625
-0.0930633544921875
-0.09466552734375
-0.0945281982421875
-0.0937042236328125
-0.09759521484375
-0.0974578857421875
-0.095672607421875
-0.0966339111328125
-0.095947265625
-0.0953521728515625
-0.09722900390625
-0.0970916748046875
-0.09613037109375
-0.098236083984375
-0.09393310546875
-0.0887603759765625
-0.0894012451171875
-0.09228515625
-0.0911865234375
-0.09063720703125
-0.09649658203125
-0.1022186279296875
-0.107208251953125
-0.1098175048828125
-0.113067626953125
-0.111785888671875
-0.1096343994140625
-0.112152099609375
-0.1169586181640625
-0.1178741455078125
-0.115997314453125
-0.1162261962890625
-0.1224517822265625
-0.13201904296875
-0.140167236328125
-0.1436004638671875
-0.1442413330078125
-0.1438751220703125
-0.142913818359375
-0.13677978515625
-0.1310577392578125
-0.1255645751953125
-0.12336730957031251
-0.12474060058593751
-0.1251983642578125
-0.125885009765625
-0.1262054443359375
-0.1317901611328125
-0.1374664306640625
-0.1462554931640625
-0.1540374755859375
-0.1496429443359375
-0.139068603515625
-0.1328887939453125
-0.1288604736328125
-0.1206207275390625
-0.1175079345703125
-0.11810302734375
-0.120025634765625
-0.12208557128906249
-0.1212615966796875
-0.11993408203125
-0.1164093017578125
-0.11297607421875
-0.1103668212890625
-0.1077117919921875
-0.1063385009765625
-0.0984649658203125
-0.086517333984375
-0.0765838623046875
-0.0693511962890625
-0.0583648681640625
-0.0457305908203125
-0.03460693359375
-0.0236663818359375
-0.01373291015625
-0.0058135986328125
-0.0019683837890625
-0.0016021728515625
-0.0006866455078125
0.0010528564453125
0.006317138671875
0.0150146484375
0.0248565673828125
0.0403289794921875
0.0519561767578125
0.0593719482421875
0.0585479736328125
0.0577239990234375
0.0606536865234375
0.0635833740234375
0.0689849853515625
0.0733795166015625
0.0778656005859375
0.0830841064453125
0.0872039794921875
0.0991973876953125
0.1100921630859375
0.1134796142578125
0.1104583740234375
0.1089935302734375
0.1068878173828125
0.1061553955078125
0.1086273193359375
0.11187744140625
0.1143035888671875
0.117828369140625
0.1208038330078125
0.12396240234375001
0.1236419677734375
0.12213134765625
0.1185150146484375
0.11187744140625
0.1029510498046875
0.0972747802734375
0.0959014892578125
0.09613037109375
0.0964508056640625
0.09613037109375
0.0900421142578125
0.088165283203125
0.0907745361328125
0.0926055908203125
0.0937042236328125
0.0944366455078125
0.0975494384765625
0.1013946533203125
0.1006622314453125
0.0959014892578125
0.08990478515625
0.0870208740234375
0.0848236083984375
0.083038330078125
0.08331298828125
0.0838165283203125
0.0840911865234375
0.0860137939453125
0.0856475830078125
0.082489013671875
0.07708740234375
0.0749359130859375
0.0762176513671875
0.0783233642578125
0.07891845703125
0.0786895751953125
0.0755767822265625
0.0709991455078125
0.0659637451171875
0.064910888671875
0.0659637451171875
0.0683441162109375
0.0711822509765625
0.0712738037109375
0.0704498291015625
0.0743408203125
0.07562255859375
0.0737457275390625
0.0723724365234375
0.0662384033203125
0.0573577880859375
0.05364990234375
0.05584716796875
0.0546112060546875
0.0499420166015625
0.0452728271484375
0.0427093505859375
0.03900146484375
0.03753662109375
0.039276123046875
0.0482025146484375
0.0550689697265625
0.0593719482421875
0.0575408935546875
0.053009033203125
0.0503997802734375
0.0525970458984375
0.0527801513671875
0.0544281005859375
0.0571746826171875
0.0615692138671875
0.0591888427734375
0.0570831298828125
0.0590057373046875
0.058685302734375
0.053558349609375
0.0494842529296875
0.047515869140625
0.04852294921875
0.04852294921875
0.050537109375
0.0568084716796875
0.06166076660156251
0.0665130615234375
0.0732879638671875
0.073516845703125
0.0706329345703125
0.0685272216796875
0.0653228759765625
0.0599212646484375
0.0593719482421875
0.059051513671875
0.05731201171875
0.0585479736328125
0.0634002685546875
0.066009521484375
0.0674285888671875
0.0728302001953125
0.08111572265625
0.08349609375
0.0824432373046875
0.0801544189453125
0.0770416259765625
0.0735626220703125
0.0685272216796875
0.0611114501953125
0.0537872314453125
0.0513153076171875
0.0562591552734375
0.064544677734375
0.070037841796875
0.0692596435546875
0.0661468505859375
0.0633087158203125
0.0577239990234375
0.0568084716796875
0.059417724609375
0.0615234375
0.0619354248046875
0.06243896484374999
0.0640411376953125
0.0647735595703125
0.0664215087890625
0.0694427490234375
0.0753936767578125
0.0802459716796875
0.0816192626953125
0.0823516845703125
0.0827178955078125
0.07525634765625
0.0683441162109375
0.0675201416015625
0.0705413818359375
0.073516845703125
0.0770416259765625
0.0801544189453125
0.0790557861328125
0.07598876953125
0.0760345458984375
0.0765838623046875
0.0742950439453125
0.0705413818359375
0.0666961669921875
0.0635833740234375
0.0643157958984375
0.0669708251953125
0.06591796875
0.06166076660156251
0.0574493408203125
0.05548095703125
0.0552520751953125
0.0525054931640625
0.0525054931640625
0.0551605224609375
0.0574493408203125
0.0570831298828125
0.0596466064453125
0.0659637451171875
0.073333740234375
0.0757598876953125
0.0716400146484375
0.067657470703125
0.0639495849609375
0.0633087158203125
0.06500244140625
0.0658721923828125
0.0684356689453125
0.0655975341796875
0.0601043701171875
0.0541534423828125
0.0460968017578125
0.04376220703125
0.0493927001953125
0.0555267333984375
0.0574493408203125
0.0576324462890625
0.0599212646484375
0.06280517578125
0.0674285888671875
0.0716400146484375
0.0760345458984375
0.0784149169921875
0.0791473388671875
0.0787811279296875
0.074981689453125
0.06610107421875
0.05657958984375
0.0552520751953125
0.0596466064453125
0.0672454833984375
0.0739288330078125
0.079559326171875
0.0767669677734375
0.0695343017578125
0.0684356689453125
0.0697174072265625
0.0684356689453125
0.0675201416015625
0.067657470703125
0.0671539306640625
0.0688018798828125
0.0693511962890625
0.0683441162109375
0.0688934326171875
0.0684356689453125
0.0672454833984375
0.0675201416015625
0.067108154296875
0.0661468505859375
0.0593719482421875
0.0510406494140625
0.0466461181640625
0.04998779296875
0.0535125732421875
0.0568084716796875
0.057220458984375
0.0558013916015625
0.0572662353515625
0.05767822265625
0.0529632568359375
0.0493011474609375
0.0499420166015625
0.05218505859375
0.0570831298828125
0.060882568359375
0.0608367919921875
0.0608367919921875
0.06138610839843749
0.0633087158203125
0.064910888671875
0.0664215087890625
0.0626678466796875
0.05950927734375
0.0596466064453125
0.0585479736328125
0.0535125732421875
0.04815673828125
0.05072021484375
0.0558929443359375
0.0574951171875
0.05291748046875
0.0518646240234375
0.0538787841796875
0.0577239990234375
0.0618438720703125
0.0608367919921875
0.0575408935546875
0.0513153076171875
0.0491180419921875
0.0529632568359375
0.0570831298828125
0.05438232421875
0.0518646240234375
0.0538787841796875
0.0610198974609375
0.0704498291015625
0.0786895751953125
0.08111572265625
0.0796966552734375
0.0775909423828125
0.0743408203125
0.0677032470703125
0.0643157958984375
0.067840576171875
0.0736541748046875
0.07305908203125
0.07196044921875
0.0673828125
0.0647735595703125
0.0650482177734375
0.063995361328125
0.0619354248046875
0.0585479736328125
0.0515899658203125
0.0474700927734375
0.0509033203125
0.0560760498046875
0.05987548828125
0.0609283447265625
0.0596466064453125
0.0570831298828125
0.0579986572265625
0.0598297119140625
0.06170654296874999
0.05914306640625
0.0544281005859375
0.0517730712890625
0.0508575439453125
0.0511322021484375
0.0534210205078125
0.0542449951171875
0.0578155517578125
0.0622100830078125
0.0632171630859375
0.05987548828125
0.0536956787109375
0.0529632568359375
0.05511474609375
0.0521392822265625
0.0461883544921875
0.04669189453125
0.0506744384765625
0.0596923828125
0.0691680908203125
0.0697174072265625
0.0661468505859375
0.0647735595703125
0.0635833740234375
0.0650482177734375
0.067108154296875
0.0688934326171875
0.067474365234375
0.0677947998046875
0.069305419921875
0.0684356689453125
0.06573486328125
0.0650482177734375
0.0636749267578125
0.0626678466796875
0.0657806396484375
0.0710906982421875
0.0736541748046875
0.068389892578125
0.060333251953125
0.0540618896484375
0.0499420166015625
0.04998779296875
0.0551605224609375
0.0618438720703125
0.0660552978515625
0.0700836181640625
0.06866455078125
0.0737457275390625
0.08258056640625
0.0883026123046875
0.0901336669921875
0.0929718017578125
0.0970916748046875
0.0994720458984375
0.1000213623046875
0.097320556640625
0.095306396484375
0.09539794921875
0.098052978515625
0.0984649658203125
0.10382080078125
0.1122894287109375
0.1100006103515625
0.1105499267578125
0.1149444580078125
0.120574951171875
0.1219024658203125
0.1186065673828125
0.1182403564453125
0.1278076171875
0.1449737548828125
0.1598968505859375
0.17486572265625
0.1845245361328125
0.1886444091796875
0.188507080078125
0.1911163330078125
0.1950531005859375
0.1959686279296875
0.1933135986328125
0.1862640380859375
0.17889404296875
0.1685028076171875
0.1601715087890625
0.1566009521484375
0.1548614501953125
0.1550445556640625
0.1493682861328125
0.14300537109375
0.1403045654296875
0.1336212158203125
0.125701904296875
0.120025634765625
0.1165924072265625
0.108489990234375
0.099151611328125
0.090362548828125
0.0787811279296875
0.0721893310546875
0.0676116943359375
0.06500244140625
0.0637664794921875
0.0595550537109375
0.0525054931640625
0.0441741943359375
0.0381317138671875
0.0331878662109375
0.0296173095703125
0.0241241455078125
0.01885986328125
0.0166168212890625
0.0179901123046875
0.0169830322265625
0.0135040283203125
0.0115814208984375
0.01153564453125
0.013824462890625
0.0182647705078125
0.0189971923828125
0.0157928466796875
0.00933837890625
0.00640869140625
0.002288818359375
-0.0010528564453125
-0.0025177001953125
-0.0011444091796875
0.0033416748046875
0.007232666015625
0.0096588134765625
0.01043701171875
0.0105743408203125
0.0123138427734375
0.0133209228515625
0.0106658935546875
0.0081939697265625
0.0078277587890625
0.0018768310546875
-0.0044403076171875
-0.0030670166015625
0.0053558349609375
0.0099334716796875
0.0141448974609375
0.032318115234375
0.0623016357421875
0.0951690673828125
0.1329803466796875
0.1679534912109375
0.2028350830078125
0.23419189453125
0.253692626953125
0.2547454833984375
0.2445831298828125
0.2399139404296875
0.2548370361328125
0.27264404296875
0.296173095703125
0.3202972412109375
0.3529815673828125
0.3987579345703125
0.4734649658203125
0.5740814208984375
0.6925506591796875
0.7547149658203125
0.7109527587890625
0.62127685546875
0.5310516357421875
0.4503021240234375
0.3970184326171875
0.403656005859375
0.449798583984375
0.4866485595703125
0.49012756347656256
0.4616546630859375
0.4148712158203125
0.3539886474609375
0.3072967529296875
0.2749786376953125
0.2570343017578125
0.2403717041015625
0.2156524658203125
0.1804046630859375
0.1397552490234375
0.0959014892578125
0.05035400390625
0.0178070068359375
-0.0048065185546875
-0.0330963134765625
-0.0530548095703125
-0.0658721923828125
-0.0762176513671875
-0.0861053466796875
-0.1010284423828125
-0.1140289306640625
-0.1307830810546875
-0.146942138671875
-0.1527557373046875
-0.1529388427734375
-0.1533050537109375
-0.154083251953125
-0.1505584716796875
-0.149322509765625
-0.1515655517578125
-0.154449462890625
-0.1565093994140625
-0.1552276611328125
-0.1515655517578125
-0.1539459228515625
-0.1594390869140625
-0.1583404541015625
-0.15289306640625
-0.15032958984375
-0.1501007080078125
-0.1521148681640625
-0.1578369140625
-0.1622772216796875
-0.1603546142578125
-0.1547698974609375
-0.15106201171875
-0.1538543701171875
-0.1533966064453125
-0.1498260498046875
-0.1473541259765625
-0.1509246826171875
-0.1534881591796875
-0.1519317626953125
-0.1436920166015625
-0.1370086669921875
-0.1354522705078125
-0.13604736328125
-0.1425933837890625
-0.14556884765625
-0.14776611328125
-0.1498260498046875
-0.1505584716796875
-0.14813232421875
-0.1490936279296875
-0.149688720703125
-0.1502838134765625
-0.1479034423828125
-0.1434173583984375
-0.1399383544921875
-0.13677978515625
-0.1305084228515625
-0.1255645751953125
-0.12432861328125
-0.1264801025390625
-0.1285858154296875
-0.1285858154296875
-0.1258392333984375
-0.11993408203125
-0.11407470703125
-0.1117401123046875
-0.1102752685546875
-0.1080780029296875
-0.1091766357421875
-0.1110076904296875
-0.1104583740234375
-0.1116485595703125
-0.1135711669921875
-0.1150360107421875
-0.1124725341796875
-0.1092681884765625
-0.1069793701171875
-0.1037750244140625
-0.100616455078125
-0.1012115478515625
-0.1026763916015625
-0.1007537841796875
-0.0940704345703125
-0.0879364013671875
-0.0824432373046875
-0.0801544189453125
-0.0782318115234375
-0.0784149169921875
-0.0818939208984375
-0.0872039794921875
-0.09649658203125
-0.0973663330078125
-0.1007537841796875
-0.1044158935546875
-0.1059722900390625
-0.1047821044921875
-0.10272216796875
-0.103363037109375
-0.1079864501953125
-0.1136627197265625
-0.1153106689453125
-0.113983154296875
-0.1114654541015625
-0.10784912109375
-0.1033172607421875
-0.1013031005859375
-0.103729248046875
-0.1068878173828125
-0.11187744140625
-0.11663818359375
-0.12277221679687499
-0.1244659423828125
-0.1231842041015625
-0.1223602294921875
-0.1186981201171875
-0.1213531494140625
-0.1262969970703125
-0.1279449462890625
-0.1279449462890625
-0.13330078125
-0.13751220703125
-0.1338043212890625
-0.1295928955078125
-0.1271209716796875
-0.1272125244140625
-0.1260223388671875
-0.12322998046875001
-0.1264801025390625
-0.1319732666015625
-0.1370086669921875
-0.1411285400390625
-0.1367340087890625
-0.130096435546875
-0.1256561279296875
-0.12327575683593751
-0.1201629638671875
-0.1138458251953125
-0.1058807373046875
-0.09942626953125
-0.0959930419921875
-0.0913238525390625
-0.0858306884765625
-0.0841827392578125
-0.0818023681640625
-0.0764923095703125
-0.0684356689453125
-0.0609283447265625
-0.0531463623046875
-0.0481109619140625
-0.04376220703125
-0.0377655029296875
-0.0308990478515625
-0.02435302734375
-0.0243072509765625
-0.0217437744140625
-0.015426635742187498
-0.0034332275390625
0.00714111328125
0.0157928466796875
0.0259552001953125
0.035980224609375
0.0452728271484375
0.0518646240234375
0.0575408935546875
0.0615692138671875
0.059967041015625
0.0586395263671875
0.0614776611328125
0.0665130615234375
0.0767669677734375
0.090545654296875
0.1013031005859375
0.10491943359375
0.1066131591796875
0.1083526611328125
0.1094512939453125
0.1127471923828125
0.1169586181640625
0.1159515380859375
0.11187744140625
0.1084442138671875
0.10455322265625
0.1034088134765625
0.1076202392578125
0.11627197265625
0.1221771240234375
0.126068115234375
0.1284027099609375
0.12506103515625
0.1219940185546875
0.1181488037109375
0.114166259765625
0.1099090576171875
0.10748291015625
0.1060638427734375
0.1062469482421875
0.1042327880859375
0.1025848388671875
0.1035003662109375
0.1101837158203125
0.11553955078125
0.1178741455078125
0.1132049560546875
0.1067047119140625
0.1040496826171875
0.1028594970703125
0.10491943359375
0.1050567626953125
0.1026763916015625
0.0993804931640625
0.0954437255859375
0.0956268310546875
0.09210205078125
0.0867462158203125
0.0823516845703125
0.0799713134765625
0.07891845703125
0.0833587646484375
0.0845489501953125
0.0828094482421875
0.0804290771484375
0.0751190185546875
0.0724639892578125
0.0695343017578125
0.0678863525390625
0.0662384033203125
0.06243896484374999
0.0609283447265625
0.0634002685546875
0.06248474121093749
0.0603790283203125
0.06024169921875
0.0579986572265625
0.055206298828125
0.0535125732421875
0.0522308349609375
0.0520477294921875
0.0503082275390625
0.0511322021484375
0.05438232421875
0.0546112060546875
0.0485687255859375
0.0436248779296875
0.0427093505859375
0.0443572998046875
0.050445556640625
0.0556182861328125
0.0523681640625
0.0478363037109375
0.0471954345703125
0.0509490966796875
0.0609283447265625
0.06500244140625
0.062713623046875
0.0595550537109375
0.0552520751953125
0.0525970458984375
0.0518646240234375
0.0535125732421875
0.0519561767578125
0.04888916015625
0.0530548095703125
0.0614776611328125
0.06317138671875
0.0603790283203125
0.05621337890625
0.0560760498046875
0.0569915771484375
0.0586395263671875
0.06175231933593749
0.0626678466796875
0.06243896484374999
0.066925048828125
0.0690765380859375
0.0692596435546875
0.0687103271484375
0.067108154296875
0.0636749267578125
0.0636749267578125
0.0682525634765625
0.0749359130859375
0.0765838623046875
0.07269287109375
0.0683441162109375
0.0634002685546875
0.06211853027343749
0.0607452392578125
0.0584564208984375
0.0552520751953125
0.06166076660156251
0.07012939453125
0.0710906982421875
0.0685272216796875
0.0645904541015625
0.0627593994140625
0.0623016357421875
0.0654144287109375
0.06573486328125
0.0626678466796875
0.0629425048828125
0.0610198974609375
0.0633087158203125
0.0659637451171875
0.06536865234375
0.0627593994140625
0.0611114501953125
0.060882568359375
0.0623016357421875
0.0666961669921875
0.0672454833984375
0.063629150390625
0.0584564208984375
0.0569000244140625
0.0551605224609375
0.0502166748046875
0.0499420166015625
0.0508575439453125
0.0532379150390625
0.05145263671875
0.0526885986328125
0.0569915771484375
0.05767822265625
0.0579071044921875
0.053741455078125
0.0531463623046875
0.05841064453125
0.0589141845703125
0.0573577880859375
0.056671142578125
0.0578155517578125
0.0573577880859375
0.0578155517578125
0.056488037109375
0.0511322021484375
0.0410614013671875
0.0357513427734375
0.0303497314453125
0.02984619140625
0.0352935791015625
0.0417938232421875
0.0486602783203125
0.050262451171875
0.04962158203125
0.0489349365234375
0.0467376708984375
0.0417022705078125
0.0424346923828125
0.0453643798828125
0.0465545654296875
0.0478363037109375
0.0476531982421875
0.0451812744140625
0.0405120849609375
0.0373077392578125
0.0373077392578125
0.0379486083984375
0.039825439453125
0.0403289794921875
0.0435333251953125
0.046234130859375
0.0461883544921875
0.0448150634765625
0.0453643798828125
0.0438079833984375
0.040557861328125
0.0395050048828125
0.0402374267578125
0.04248046875
0.041839599609375
0.0325469970703125
0.0258636474609375
0.0211944580078125
0.0202789306640625
0.0222015380859375
0.0277862548828125
0.0332794189453125
0.0374908447265625
0.0420684814453125
0.0402374267578125
0.0395965576171875
0.0380401611328125
0.03277587890625
0.026092529296875
0.0212860107421875
0.0193634033203125
0.01702880859375
0.0164337158203125
0.0178070068359375
0.0166168212890625
0.0138702392578125
0.015426635742187498
0.0201416015625
0.025360107421875
0.0304412841796875
0.0295257568359375
0.0298919677734375
0.0302581787109375
0.0276947021484375
0.0247650146484375
0.0211944580078125
0.01959228515625
0.0195465087890625
0.0170745849609375
0.0187225341796875
0.0211029052734375
0.0189971923828125
0.0181732177734375
0.0164337158203125
0.0163421630859375
0.0201873779296875
0.02618408203125
0.0319061279296875
0.0362548828125
0.0406036376953125
0.0416107177734375
0.0408782958984375
0.0373992919921875
0.0336456298828125
0.0331878662109375
0.03277587890625
0.0304412841796875
0.0290679931640625
0.0265045166015625
0.026092529296875
0.0222930908203125
0.02288818359375
0.0298919677734375
0.0359344482421875
0.0395050048828125
0.0395050048828125
0.0352935791015625
0.030303955078125
0.02874755859375
0.0291595458984375
0.0321807861328125
0.0368499755859375
0.0373077392578125
0.0346527099609375
0.031219482421874997
0.0286102294921875
0.0280609130859375
0.02801513671875
0.0275115966796875
0.0286102294921875
0.0295257568359375
0.0319061279296875
0.031173706054687503
0.0295257568359375
0.0312652587890625
0.0315399169921875
0.0269622802734375
0.02398681640625
0.021697998046875
0.0225677490234375
0.0256805419921875
0.02947998046875
0.030990600585937503
0.0280609130859375
0.0243988037109375
0.0203704833984375
0.0152435302734375
0.0084686279296875
0.008331298828125
0.015426635742187498
0.02252197265625
0.0267791748046875
0.02728271484375
0.0263214111328125
0.0251312255859375
0.025543212890625
0.0296173095703125
0.0349273681640625
0.0385894775390625
0.0427093505859375
0.0434417724609375
0.0376739501953125
0.0327301025390625
0.0353851318359375
0.03570556640625
0.0331878662109375
0.03936767578125
0.0447235107421875
0.0434417724609375
0.0366668701171875
0.0336456298828125
0.030990600585937503
0.0312652587890625
0.0353851318359375
0.03863525390625
0.0373077392578125
0.0344696044921875
0.0363922119140625
0.0398712158203125
0.0417022705078125
0.0364837646484375
0.03570556640625
0.0384063720703125
0.0368499755859375
0.0343780517578125
0.03424072265625
0.0343780517578125
0.03643798828125
0.0382232666015625
0.0384063720703125
0.0353851318359375
0.0337371826171875
0.03057861328125
0.0260467529296875
0.0256805419921875
0.0233917236328125
0.0245819091796875
0.0249481201171875
0.027008056640625
0.02618408203125
0.02069091796875
0.0187225341796875
0.0210113525390625
0.0207366943359375
0.0185394287109375
0.016021728515625
0.0113067626953125
0.011077880859375
0.0172119140625
0.0222930908203125
0.0259552001953125
0.0240325927734375
0.02215576171875
0.02178955078125
0.0241241455078125
0.0336456298828125
0.04010009765625
0.04486083984375
0.04888916015625
0.04998779296875
0.0511322021484375
0.0513153076171875
0.0513153076171875
0.05291748046875
0.0566253662109375
0.0582733154296875
0.0639495849609375
0.0720977783203125
0.0776824951171875
0.0852813720703125
0.0936126708984375
0.0938873291015625
0.0915985107421875
0.0903167724609375
