ECG
0.03094482421875
0.0336456298828125
0.0330047607421875
0.0318145751953125
0.0303497314453125
0.0303497314453125
0.0326385498046875
0.029571533203125
0.0261383056640625
0.02764892578125
0.0354766845703125
0.0427093505859375
0.0470123291015625
0.0505828857421875
0.0525970458984375
0.0573577880859375
0.0636749267578125
0.0671539306640625
0.06427001953125
0.0618438720703125
0.05877685546875
0.0567169189453125
0.0589141845703125
0.060699462890625
0.059783935546875
0.0603790283203125
0.0639495849609375
0.0674285888671875
0.0688934326171875
0.0664215087890625
0.0657806396484375
0.0690765380859375
0.0699005126953125
0.0744781494140625
0.0771331787109375
0.07891845703125
0.07928466796875
0.0769500732421875
0.07342529296875
0.0699462890625
0.0677032470703125
0.0685272216796875
0.0703125
0.0701751708984375
0.0708160400390625
0.0737457275390625
0.07781982421875
0.07818603515625
0.0793304443359375
0.07855224609375
0.0761260986328125
0.07452392578125
0.0743865966796875
0.07763671875
0.081390380859375
0.0842742919921875
0.0866546630859375
0.09027099609375
0.0912322998046875
0.0933380126953125
0.091278076171875
0.0853271484375
0.077728271484375
0.0707244873046875
0.0657806396484375
0.0660552978515625
0.0666046142578125
0.066375732421875
0.06536865234375
0.0660552978515625
0.0695343017578125
0.0699920654296875
0.0699005126953125
0.06976318359375
0.0728302001953125
0.0764923095703125
0.0740203857421875
0.07269287109375
0.0774993896484375
0.077911376953125
0.0712738037109375
0.0692596435546875
0.07232666015625
0.07232666015625
0.072601318359375
0.07379150390625
0.0748443603515625
0.0703582763671875
0.0658721923828125
0.0647735595703125
0.06239318847656251
0.0592803955078125
0.0601043701171875
0.0631256103515625
0.0661468505859375
0.06829833984375
0.0699920654296875
0.073699951171875
0.0762176513671875
0.0811614990234375
0.0840911865234375
0.087615966796875
0.089630126953125
0.0905914306640625
0.0893096923828125
0.0834503173828125
0.07965087890625
0.0774993896484375
0.0775909423828125
0.0762176513671875
0.0774078369140625
0.0814361572265625
0.0797882080078125
0.07855224609375
0.0782318115234375
0.0738372802734375
0.0687103271484375
0.0591888427734375
0.05218505859375
0.0478363037109375
0.0432586669921875
0.0434417724609375
0.0431671142578125
0.038818359375
0.0388641357421875
0.03973388671875
0.0386810302734375
0.0352020263671875
0.0373077392578125
0.0384979248046875
0.0390472412109375
0.0380401611328125
0.0390472412109375
0.0411529541015625
0.0422515869140625
0.043304443359375
0.04522705078125
0.0424346923828125
0.0386810302734375
0.03460693359375
0.0341033935546875
0.03424072265625
0.0364837646484375
0.0384063720703125
0.0428924560546875
0.049713134765625
0.0541534423828125
0.0540618896484375
0.0549774169921875
0.0515899658203125
0.05364990234375
0.0602874755859375
0.0682525634765625
0.0709991455078125
0.0690765380859375
0.06610107421875
0.0634002685546875
0.0603790283203125
0.0591888427734375
0.0564422607421875
0.0541534423828125
0.0531463623046875
0.055023193359375
0.05914306640625
0.06248474121093749
0.0634002685546875
0.0629425048828125
0.06248474121093749
0.058502197265625
0.0591888427734375
0.0608367919921875
0.0640411376953125
0.0728302001953125
0.0838165283203125
0.08990478515625
0.0951690673828125
0.098968505859375
0.0976409912109375
0.0946197509765625
0.096038818359375
0.0950775146484375
0.0915069580078125
0.09027099609375
0.0882110595703125
0.0884857177734375
0.0922393798828125
0.0961761474609375
0.1024932861328125
0.1043243408203125
0.09869384765625
0.09429931640625
0.0952606201171875
0.097686767578125
0.09814453125
0.0983734130859375
0.10015869140625
0.1036834716796875
0.1059722900390625
0.1038665771484375
0.10107421875
0.100341796875
0.1027679443359375
0.10455322265625
0.1056976318359375
0.1094512939453125
0.1104583740234375
0.107574462890625
0.0972747802734375
0.090179443359375
0.0852813720703125
0.0835418701171875
0.0859222412109375
0.0926055908203125
0.09796142578125
0.1003875732421875
0.1024932861328125
0.10546875
0.1071624755859375
0.1008453369140625
0.0903167724609375
0.0861968994140625
0.0886688232421875
0.0914154052734375
0.0900421142578125
0.0915069580078125
0.0920562744140625
0.0926971435546875
0.0901336669921875
0.0864715576171875
0.0866546630859375
0.0883026123046875
0.09027099609375
0.09503173828125
0.0990142822265625
0.1035003662109375
0.100982666015625
0.0921478271484375
0.0841827392578125
0.0828094482421875
0.0850067138671875
0.0867462158203125
0.0808868408203125
0.0791015625
0.0811614990234375
0.0819854736328125
0.0765838623046875
0.0714569091796875
0.0703582763671875
0.0742034912109375
0.0802459716796875
0.0871124267578125
0.0926055908203125
0.0948028564453125
0.0948028564453125
0.0916900634765625
0.0890350341796875
0.08953857421875
0.090545654296875
0.0926971435546875
0.09814453125
0.1004791259765625
0.09979248046875
0.0978240966796875
0.0925140380859375
0.0907745361328125
0.0939788818359375
0.098785400390625
0.1054229736328125
0.1101837158203125
0.1124725341796875
0.11297607421875
0.1142120361328125
0.1202545166015625
0.1291351318359375
0.1362762451171875
0.1432342529296875
0.15252685546875
0.15765380859375
0.1581573486328125
0.1584320068359375
0.1603546142578125
0.1612701416015625
0.1574249267578125
0.1519317626953125
0.1475372314453125
0.1423187255859375
0.1353607177734375
0.1303253173828125
0.1278533935546875
0.12400817871093751
0.11627197265625
0.1095428466796875
0.1050567626953125
0.1024017333984375
0.0986480712890625
0.0911407470703125
0.0850067138671875
0.0790557861328125
0.0694427490234375
0.0558013916015625
0.0471954345703125
0.0446319580078125
0.04669189453125
0.0455474853515625
0.04339599609375
0.0420684814453125
0.0363006591796875
0.0291595458984375
0.0256805419921875
0.0273284912109375
0.0288848876953125
0.03057861328125
0.029937744140625
0.0297088623046875
0.0298004150390625
0.0244903564453125
0.0167083740234375
0.0092010498046875
0.0037078857421875
-0.0006866455078125
-0.0038909912109375
-0.00567626953125
-0.0025177001953125
0.0006866455078125
0.0029754638671875
0.0060882568359375
0.0091094970703125
0.0092010498046875
0.0058135986328125
-0.0017852783203125
-0.0081024169921875
-0.0118560791015625
-0.015335083007812498
-0.0205535888671875
-0.0274200439453125
-0.0335540771484375
-0.0354766845703125
-0.0377655029296875
-0.0421600341796875
-0.039093017578125
-0.0298004150390625
-0.0210113525390625
-0.0142364501953125
-0.00311279296875
0.0182647705078125
0.0487518310546875
0.0815277099609375
0.1146240234375
0.1448822021484375
0.1794891357421875
0.21405029296875
0.2356109619140625
0.23675537109375
0.2295684814453125
0.23089599609375
0.24540710449218747
0.2628021240234375
0.28179931640625
0.3009796142578125
0.33197021484375
0.3928985595703125
0.4840850830078125
0.604705810546875
0.7260589599609375
0.7484893798828125
0.6715850830078125
0.5704193115234375
0.4713592529296875
0.3919830322265625
0.35906982421875
0.3860321044921875
0.44073486328125
0.4792327880859375
0.4839935302734375
0.4559783935546875
0.4028778076171875
0.340850830078125
0.28656005859375
0.2463226318359375
0.225677490234375
0.21148681640625
0.187225341796875
0.1525726318359375
0.1091766357421875
0.0573577880859375
0.0105743408203125
-0.0228424072265625
-0.0500335693359375
-0.0699005126953125
-0.08184814453125
-0.0935211181640625
-0.1046905517578125
-0.1165924072265625
-0.1310577392578125
-0.1440582275390625
-0.1597137451171875
-0.1761474609375
-0.187408447265625
-0.18841552734375
-0.1903839111328125
-0.1978912353515625
-0.2047576904296875
-0.2057647705078125
-0.2021026611328125
-0.20123291015625
-0.2064971923828125
-0.211944580078125
-0.2140045166015625
-0.215972900390625
-0.2172088623046875
-0.2178497314453125
-0.2141876220703125
-0.2039337158203125
-0.19610595703125
-0.19317626953125
-0.1928558349609375
-0.1920318603515625
-0.1925811767578125
-0.1960601806640625
-0.1972503662109375
-0.197845458984375
-0.195098876953125
-0.1893768310546875
-0.18255615234375
-0.17779541015625
-0.178253173828125
-0.18072509765625
-0.178619384765625
-0.1760101318359375
-0.17376708984375
-0.1667633056640625
-0.16094970703125
-0.1594390869140625
-0.1594390869140625
-0.1565093994140625
-0.1552276611328125
-0.1590728759765625
-0.1635589599609375
-0.165802001953125
-0.17047119140625
-0.173126220703125
-0.1681365966796875
-0.1654815673828125
-0.1697845458984375
-0.1754608154296875
-0.17413330078125
-0.169464111328125
-0.1677703857421875
-0.17083740234375
-0.1729888916015625
-0.16973876953125
-0.16754150390625
-0.1665802001953125
-0.1607208251953125
-0.1579742431640625
-0.16094970703125
-0.163238525390625
-0.1663970947265625
-0.1663055419921875
-0.1644744873046875
-0.1600799560546875
-0.1577911376953125
-0.1563720703125
-0.1545867919921875
-0.1561431884765625
-0.1594390869140625
-0.1610870361328125
-0.16094970703125
-0.1597137451171875
-0.1611785888671875
-0.1655731201171875
-0.1670379638671875
-0.16534423828125
-0.164154052734375
-0.1670379638671875
-0.1680450439453125
-0.1682281494140625
-0.1658477783203125
-0.1626434326171875
-0.1611328125
-0.1584320068359375
-0.1563262939453125
-0.1557769775390625
-0.1574249267578125
-0.1594390869140625
-0.1571502685546875
-0.1532135009765625
-0.1531219482421875
-0.1533050537109375
-0.1548614501953125
-0.1568756103515625
-0.1599884033203125
-0.162506103515625
-0.1626434326171875
-0.163970947265625
-0.16717529296875
-0.1716156005859375
-0.1720733642578125
-0.1696014404296875
-0.1704254150390625
-0.1727142333984375
-0.17413330078125
-0.18035888671875
-0.1862640380859375
-0.1868133544921875
-0.1871795654296875
-0.1887359619140625
-0.1874542236328125
-0.1858062744140625
-0.1834716796875
-0.1770172119140625
-0.173126220703125
-0.1717987060546875
-0.1693267822265625
-0.1667633056640625
-0.1689605712890625
-0.1732635498046875
-0.1793975830078125
-0.183380126953125
-0.1812286376953125
-0.1754608154296875
-0.171844482421875
-0.1680450439453125
-0.1623687744140625
-0.1556854248046875
-0.1517486572265625
-0.146026611328125
-0.1399383544921875
-0.1345367431640625
-0.127166748046875
-0.1214447021484375
-0.1160430908203125
-0.1119232177734375
-0.110504150390625
-0.106292724609375
-0.09686279296875
-0.087982177734375
-0.0797882080078125
-0.0719146728515625
-0.060791015625
-0.04962158203125
-0.0417938232421875
-0.0363006591796875
-0.0276031494140625
-0.0202789306640625
-0.0135040283203125
-0.0059967041015625
0.0020599365234375
0.00750732421875
0.008697509765625
0.0108489990234375
0.014007568359375
0.0191802978515625
0.02362060546875
0.0274200439453125
0.0349273681640625
0.0434417724609375
0.0533294677734375
0.0590057373046875
0.0607452392578125
0.0564422607421875
0.0490264892578125
0.0460052490234375
0.0463714599609375
0.0489349365234375
0.04962158203125
0.0509490966796875
0.0528717041015625
0.0546112060546875
0.05804443359375
0.0634002685546875
0.0682525634765625
0.0713653564453125
0.0710906982421875
0.0666046142578125
0.059600830078125
0.0540618896484375
0.0540618896484375
0.0556640625
0.0546112060546875
0.0493927001953125
0.044219970703125
0.0428924560546875
0.0440826416015625
0.0472869873046875
0.05218505859375
0.0555267333984375
0.0547943115234375
0.0538787841796875
0.0555267333984375
0.0560302734375
0.0570831298828125
0.0560760498046875
0.0504913330078125
0.0434417724609375
0.04083251953125
0.0414276123046875
0.04193115234375
0.0390472412109375
0.0376739501953125
0.03936767578125
0.04156494140625
0.04083251953125
0.0388641357421875
0.0368499755859375
0.0345611572265625
0.0336456298828125
0.0317230224609375
0.0296173095703125
0.030990600585937503
0.0326385498046875
0.0380401611328125
0.0407867431640625
0.04010009765625
0.0390472412109375
0.0388641357421875
0.0334625244140625
0.01776123046875
0.0027923583984375
-0.0077362060546875
-0.0140533447265625
-0.0167083740234375
-0.0191802978515625
-0.0248565673828125
-0.0298004150390625
-0.0234832763671875
-0.0102996826171875
0.0037994384765625
0.015335083007812498
0.026458740234375
0.0372161865234375
0.04083251953125
0.0397796630859375
0.03643798828125
0.0322723388671875
0.030624389648437503
0.0274200439453125
0.0222930908203125
0.017669677734375
0.0184478759765625
0.01959228515625
0.0196380615234375
0.0205535888671875
0.0216522216796875
0.021331787109375
0.0220184326171875
0.0252227783203125
0.0291595458984375
0.0297088623046875
0.03314208984375
0.0396881103515625
0.0417938232421875
0.0432586669921875
0.0419769287109375
0.0411529541015625
0.0446319580078125
0.047332763671875
0.0519561767578125
0.049163818359375
0.0406951904296875
0.0337371826171875
0.0302581787109375
0.0266876220703125
0.0262298583984375
0.0256805419921875
0.0254058837890625
0.0215606689453125
0.0149688720703125
0.00714111328125
0.00897216796875
0.015426635742187498
0.0254058837890625
0.0321807861328125
0.035247802734375
0.0367584228515625
0.0405120849609375
0.04339599609375
0.0387725830078125
0.0329132080078125
0.0270538330078125
0.0195465087890625
0.0112152099609375
0.003387451171875
0.0004119873046875
0.003753662109375
0.007965087890625
0.0107574462890625
0.01959228515625
0.02984619140625
0.03680419921875
0.0412445068359375
0.0485687255859375
0.0449066162109375
0.0445404052734375
0.0465545654296875
0.0457763671875
0.0487518310546875
0.05621337890625
0.0548858642578125
0.05181884765625
0.0499420166015625
0.054107666015625
0.06170654296874999
0.0584564208984375
0.0583648681640625
0.0560760498046875
0.0549774169921875
0.0567169189453125
0.0387725830078125
0.0378570556640625
0.0402374267578125
0.03643798828125
0.0333709716796875
0.0329132080078125
0.0449066162109375
0.0516357421875
0.050262451171875
0.04815673828125
0.0515899658203125
0.0565338134765625
0.0575408935546875
0.0530548095703125
0.04742431640625
0.0467376708984375
0.0483856201171875
0.0533294677734375
0.0635833740234375
0.0668792724609375
0.068389892578125
0.0720977783203125
0.0713653564453125
0.075439453125
0.079559326171875
0.0822601318359375
0.0804290771484375
0.0793304443359375
0.0771331787109375
0.0731048583984375
0.0718231201171875
0.073150634765625
0.0699920654296875
0.0674285888671875
0.0680694580078125
0.0671539306640625
0.0667877197265625
0.0720977783203125
0.0772247314453125
0.082305908203125
0.0834503173828125
0.0825347900390625
0.0790557861328125
0.0742950439453125
0.0706329345703125
0.0694427490234375
0.0694427490234375
0.0680694580078125
0.06646728515625
0.06170654296874999
0.0582733154296875
0.0551605224609375
0.0558929443359375
0.0625762939453125
0.0694427490234375
0.0733795166015625
0.0720062255859375
0.0659637451171875
0.06060791015625
0.055572509765625
0.0512237548828125
0.0479278564453125
0.0447235107421875
0.0419769287109375
0.0408782958984375
0.0444488525390625
0.0482940673828125
0.05255126953125
0.0527801513671875
0.0528717041015625
0.0534210205078125
0.057861328125
0.0634002685546875
0.0627593994140625
0.0547027587890625
0.04302978515625
0.0395050048828125
0.0398712158203125
0.0424346923828125
0.0461883544921875
0.0492095947265625
0.0536956787109375
0.0592803955078125
0.0641326904296875
0.0647735595703125
0.05914306640625
0.0547943115234375
0.05401611328125
0.0505828857421875
0.050445556640625
0.0491180419921875
0.0482940673828125
0.0522308349609375
0.0580902099609375
0.0634002685546875
0.07196044921875
0.0783233642578125
0.0821685791015625
0.0844573974609375
0.0842742919921875
0.0820770263671875
0.0783233642578125
0.0750274658203125
0.0715484619140625
0.0720977783203125
0.0737457275390625
0.0743408203125
0.0756683349609375
0.07781982421875
0.0809783935546875
0.08404541015625
0.085968017578125
0.0833587646484375
0.0791473388671875
0.0758514404296875
0.0713653564453125
0.0635833740234375
0.055755615234375
0.0505828857421875
0.05035400390625
0.051727294921875
0.0505828857421875
0.047882080078125
0.048065185546875
0.04705810546875
0.0496673583984375
0.04742431640625
0.0411529541015625
0.0382232666015625
0.04229736328125
0.04339599609375
0.0440826416015625
0.0486602783203125
0.05401611328125
0.06170654296874999
0.0685272216796875
0.0685272216796875
0.0666046142578125
0.0669708251953125
0.0704498291015625
0.0721893310546875
0.07708740234375
0.0839080810546875
0.0908203125
0.0963592529296875
0.1018524169921875
0.104644775390625
0.10198974609375
0.1036834716796875
0.108489990234375
0.11553955078125
0.121124267578125
0.1265716552734375
0.1375579833984375
0.1533966064453125
0.1640167236328125
0.1683197021484375
0.1697845458984375
0.1694183349609375
0.16790771484375
0.17047119140625
0.1746368408203125
0.180633544921875
0.1853485107421875
0.188140869140625
0.1860809326171875
0.178436279296875
0.1750946044921875
0.168182373046875
0.1570587158203125
0.1472625732421875
0.1406707763671875
0.1376495361328125
0.1359100341796875
0.1304168701171875
0.1260223388671875
0.1210784912109375
0.1132049560546875
0.1038665771484375
0.091644287109375
0.0839080810546875
0.0807952880859375
0.0773162841796875
0.0696258544921875
0.0643157958984375
0.0610198974609375
0.0570831298828125
0.0487060546875
0.03973388671875
0.0336456298828125
0.03021240234375
0.0287933349609375
0.0316314697265625
0.0347442626953125
0.0341033935546875
0.0303497314453125
0.02471923828125
0.01776123046875
0.012451171875
0.0109405517578125
0.0072784423828125
0.0025177001953125
-0.0025634765625
-0.0076446533203125
-0.0080108642578125
-0.0088348388671875
-0.006683349609375
-0.0051727294921875
-0.0050811767578125
-0.00421142578125
-0.00054931640625
0.0048065185546875
0.0070037841796875
0.0046234130859375
0.0043487548828125
0.0052642822265625
0.0046234130859375
-0.0038909912109375
-0.0129547119140625
-0.015518188476562498
-0.0171661376953125
-0.0265045166015625
-0.0297088623046875
-0.0308990478515625
-0.0282440185546875
-0.0140533447265625
0.0159759521484375
0.05511474609375
0.0967254638671875
0.1344451904296875
0.1713409423828125
0.2117156982421875
0.2439422607421875
0.2566680908203125
0.25579833984375
0.2512664794921875
0.264312744140625
0.2884368896484375
0.3254241943359375
0.3639678955078125
0.4038848876953125
0.4544219970703125
0.5327911376953125
0.6421966552734375
0.7560882568359375
0.820587158203125
0.76116943359375
0.6475067138671875
0.54547119140625
0.44970703125
0.3745880126953125
0.3603973388671875
0.40997314453125
0.451629638671875
0.4584503173828125
0.4298858642578125
0.3829193115234375
0.3340301513671875
0.2924652099609375
0.26202392578125
0.243255615234375
0.238494873046875
0.2227020263671875
0.1909332275390625
0.1481781005859375
0.09686279296875
0.04302978515625
-4.57763671875e-05
-0.0260009765625
-0.04925537109375
-0.0715484619140625
-0.0802459716796875
-0.0846405029296875
-0.0920562744140625
-0.0984649658203125
-0.1076202392578125
-0.1191558837890625
-0.127532958984375
-0.1332550048828125
-0.13787841796875
-0.1409454345703125
-0.143463134765625
-0.145294189453125
-0.1450653076171875
-0.1441497802734375
-0.1435089111328125
-0.1468963623046875
-0.1526641845703125
-0.1545867919921875
-0.157745361328125
-0.1594390869140625
-0.162506103515625
-0.160858154296875
-0.15875244140625
-0.1633758544921875
-0.167999267578125
-0.166259765625
-0.1649322509765625
-0.1621856689453125
-0.1588897705078125
-0.161407470703125
-0.1674041748046875
-0.17413330078125
-0.177886962890625
-0.176971435546875
-0.1734466552734375
-0.1699676513671875
-0.1669464111328125
-0.1598052978515625
-0.1572418212890625
-0.16241455078125
-0.1685028076171875
-0.1685943603515625
-0.1673126220703125
-0.1621856689453125
-0.1524810791015625
-0.1397552490234375
-0.1266632080078125
-0.1253814697265625
-0.1343536376953125
-0.1402130126953125
-0.1403045654296875
-0.1379241943359375
-0.1362762451171875
-0.1351776123046875
-0.134674072265625
-0.1338043212890625
-0.1328887939453125
-0.1325225830078125
-0.1281280517578125
-0.1224517822265625
-0.1179656982421875
-0.114532470703125
-0.1154022216796875
-0.1205291748046875
-0.119659423828125
-0.1142578125
-0.1121978759765625
-0.11260986328125
-0.1094512939453125
-0.1074371337890625
-0.1092681884765625
-0.108489990234375
-0.1061553955078125
-0.10455322265625
-0.1011199951171875
-0.09503173828125
-0.092559814453125
-0.09979248046875
-0.107666015625
-0.1153564453125
-0.1185150146484375
-0.116546630859375
-0.1132965087890625
-0.108673095703125
-0.105560302734375
-0.1014862060546875
-0.0986480712890625
-0.0976409912109375
-0.09356689453125
-0.08990478515625
-0.0919647216796875
-0.0929718017578125
-0.0944366455078125
-0.094024658203125
-0.0962677001953125
-0.101715087890625
-0.1094512939453125
-0.11517333984375
-0.1149444580078125
-0.113800048828125
-0.112518310546875
-0.1114654541015625
-0.1172332763671875
-0.12208557128906249
-0.1242828369140625
-0.12799072265625
-0.1321563720703125
-0.136138916015625
-0.1371002197265625
-0.1350860595703125
-0.1353607177734375
-0.1347198486328125
-0.1384735107421875
-0.1402587890625
-0.1413116455078125
-0.1428680419921875
-0.1427764892578125
-0.1411285400390625
-0.1374664306640625
-0.1376953125
-0.14190673828125
-0.1459808349609375
-0.1488189697265625
-0.1494598388671875
-0.1477203369140625
-0.1446990966796875
-0.1414031982421875
-0.1354522705078125
-0.13055419921875
-0.12272644042968749
-0.1183319091796875
-0.1172332763671875
-0.1190643310546875
-0.1186065673828125
-0.116729736328125
-0.113983154296875
-0.1151275634765625
-0.11773681640625
-0.1149444580078125
-0.11077880859375
-0.1074371337890625
-0.10162353515625
-0.0978240966796875
-0.0902252197265625
-0.0809783935546875
-0.0742950439453125
-0.0644989013671875
-0.0540618896484375
-0.0447235107421875
-0.0382232666015625
-0.03204345703125
-0.031036376953124997
-0.0305328369140625
-0.0303497314453125
-0.02545166015625
-0.01446533203125
-0.000457763671875
0.013641357421875
0.02764892578125
0.0395050048828125
0.04486083984375
0.04559326171875
0.0469207763671875
0.048980712890625
0.0514984130859375
0.051177978515625
0.05145263671875
0.0537872314453125
0.0581817626953125
0.0595550537109375
0.0629425048828125
0.0681610107421875
0.0727386474609375
0.0782318115234375
0.0824432373046875
0.085968017578125
0.0856475830078125
0.08624267578125
0.0875701904296875
0.08514404296875
0.0863800048828125
0.0873870849609375
0.0845489501953125
0.0819854736328125
0.0787811279296875
0.0811614990234375
0.0834503173828125
0.0785064697265625
0.0701751708984375
0.066375732421875
0.0639495849609375
0.0612030029296875
0.0591888427734375
0.058319091796875
0.0559844970703125
0.0537872314453125
0.0497589111328125
0.0448150634765625
0.042755126953125
0.0421600341796875
0.04229736328125
0.0419769287109375
0.044677734375
0.04669189453125
0.0450897216796875
0.04248046875
0.0383148193359375
0.0373992919921875
0.038726806640625
0.0414276123046875
0.04266357421875
0.0391387939453125
0.0337371826171875
0.030990600585937503
0.0310821533203125
0.0265045166015625
0.0270538330078125
0.030487060546875
0.0283355712890625
0.021331787109375
0.0142364501953125
0.0128631591796875
0.0124053955078125
0.0110321044921875
0.0108489990234375
0.01373291015625
0.016571044921875
0.0203704833984375
0.02362060546875
0.0245819091796875
0.02215576171875
0.021881103515625
0.0200042724609375
0.01483154296875
0.0093841552734375
0.0061798095703125
0.0037994384765625
0.0065460205078125
0.0138702392578125
0.019500732421875
0.0192718505859375
0.0171661376953125
0.015838623046875
0.0167999267578125
0.018310546875
0.0189056396484375
0.0198211669921875
0.016754150390625
0.0090179443359375
0.0058135986328125
0.0088348388671875
0.0160675048828125
0.0225677490234375
0.0240325927734375
0.02398681640625
0.0237579345703125
0.0238037109375
0.0234832763671875
0.0267791748046875
0.0310821533203125
0.035064697265625
0.0346527099609375
0.0318145751953125
0.0227508544921875
0.0158843994140625
0.015289306640625
0.0146026611328125
0.016754150390625
0.020233154296875
0.0253143310546875
0.035064697265625
0.0375823974609375
0.0339202880859375
0.0294342041015625
0.026458740234375
0.0276031494140625
0.031173706054687503
0.03387451171875
0.0357513427734375
0.0350189208984375
0.0333709716796875
0.0339202880859375
0.0374908447265625
0.03790283203125
0.0359344482421875
0.0359344482421875
0.0345611572265625
0.031173706054687503
0.0234832763671875
0.0200042724609375
0.0190887451171875
0.0211029052734375
0.0241241455078125
0.0259552001953125
0.0262298583984375
0.0290679931640625
0.0320892333984375
0.0336456298828125
0.0329132080078125
0.0321807861328125
0.0346527099609375
0.0330047607421875
0.0262298583984375
0.0219268798828125
0.022247314453125
0.0253143310546875
0.0244903564453125
0.0235748291015625
0.0253143310546875
0.0271453857421875
0.0265960693359375
0.02435302734375
0.0234832763671875
0.02362060546875
0.0198211669921875
0.0136871337890625
0.0092010498046875
0.009063720703125
0.0158843994140625
0.0226593017578125
0.0258636474609375
0.0278778076171875
0.0285186767578125
0.0297088623046875
0.0312652587890625
0.0337371826171875
0.0340118408203125
0.0364837646484375
0.0402374267578125
0.03826904296875
0.0350189208984375
0.0314483642578125
0.0259552001953125
0.0206451416015625
0.0182647705078125
0.0200042724609375
0.0244903564453125
0.02691650390625
0.0298919677734375
0.0318145751953125
0.0339202880859375
0.0372161865234375
0.039825439453125
0.0413360595703125
0.0406036376953125
0.0373077392578125
0.0357513427734375
0.036529541015625
0.0355682373046875
0.0321807861328125
0.0295257568359375
0.0298919677734375
0.0277862548828125
0.02874755859375
0.029296875
0.02581787109375
0.024078369140625
0.0225677490234375
0.0215606689453125
0.0200958251953125
0.01519775390625
0.0108489990234375
0.0102081298828125
0.01025390625
0.0075531005859375
0.0059051513671875
0.0084686279296875
0.0164337158203125
0.0259552001953125
0.0265960693359375
0.0242156982421875
0.0222930908203125
0.0213775634765625
0.02032470703125
0.02069091796875
0.0232086181640625
0.0255889892578125
0.0265960693359375
0.0253143310546875
0.0203704833984375
0.015335083007812498
0.0115814208984375
0.0056304931640625
0.0046234130859375
0.0075531005859375
0.0117645263671875
0.01483154296875
0.0172576904296875
0.0222930908203125
0.0248565673828125
0.02252197265625
0.0200042724609375
0.018218994140625
0.01812744140625
0.0196380615234375
0.0225677490234375
0.020599365234375
0.0148773193359375
0.0113983154296875
0.01007080078125
0.0107574462890625
0.0089263916015625
0.0062713623046875
0.0041656494140625
0.00531005859375
0.0071868896484375
0.0082855224609375
0.0106658935546875
0.01409912109375
0.015609741210937498
0.01336669921875
0.0092926025390625
0.0046234130859375
0.0028839111328125
0.001739501953125
0.0007781982421875
0.0016021728515625
0.0020599365234375
0.0049896240234375
0.0081939697265625
0.0127716064453125
0.0146026611328125
0.0159759521484375
0.01373291015625
0.0113067626953125
0.0116729736328125
0.0127716064453125
0.0087432861328125
0.0029754638671875
-0.003204345703125
-0.0027923583984375
0.00311279296875
0.007049560546875
0.0080108642578125
0.0061798095703125
0.0069122314453125
0.0082855224609375
0.0091552734375
0.0130462646484375
0.015335083007812498
0.0157012939453125
0.01629638671875
0.0134124755859375
0.00860595703125
0.0063629150390625
0.0062713623046875
0.0063629150390625
0.0056304931640625
0.0068206787109375
0.0137786865234375
0.0255889892578125
0.0384979248046875
0.0441741943359375
0.0432586669921875
0.0392303466796875
0.0357513427734375
0.0315399169921875
0.0268707275390625
0.025360107421875
0.0233001708984375
0.02288818359375
0.0240325927734375
0.0256805419921875
0.0287933349609375
0.0406951904296875
0.0519561767578125
0.0615692138671875
0.0714569091796875
0.0800628662109375
0.0901336669921875
0.1057891845703125
0.1188812255859375
0.12423706054687499
0.1237335205078125
0.1177825927734375
0.11334228515625
0.1185150146484375
0.12872314453125
0.1399383544921875
0.1444244384765625
0.137420654296875
0.1243743896484375
0.1100921630859375
0.10272216796875
0.1000213623046875
0.097869873046875
0.0875701904296875
0.0743865966796875
0.064361572265625
0.06138610839843749
0.0630340576171875
0.0690765380859375
0.0695343017578125
0.0691680908203125
0.0675201416015625
0.0566253662109375
0.0427093505859375
0.035064697265625
0.0302581787109375
0.02764892578125
0.02069091796875
0.010894775390625
0.0031585693359375
-0.0019683837890625
-0.0075531005859375
-0.011077880859375
-0.011627197265625
-0.01300048828125
-0.016387939453125
-0.0146942138671875
-0.0152435302734375
-0.0207366943359375
-0.030807495117187503
-0.0392303466796875
-0.0423431396484375
-0.0450897216796875
-0.0485687255859375
-0.0526885986328125
-0.0569915771484375
-0.0581817626953125
-0.058319091796875
-0.059051513671875
-0.0565338134765625
-0.0527801513671875
-0.0491180419921875
-0.0457305908203125
-0.0421600341796875
-0.0396881103515625
-0.0398712158203125
-0.0394134521484375
-0.0374908447265625
-0.0368499755859375
-0.04266357421875
-0.0533294677734375
-0.0631256103515625
-0.07049560546875
-0.0731964111328125
-0.0677032470703125
-0.0564422607421875
-0.04852294921875
-0.0381317138671875
-0.0199127197265625
0.0057220458984375
0.0388641357421875
0.076812744140625
0.1148529052734375
0.1563262939453125
0.1924896240234375
0.2134552001953125
0.2171173095703125
0.20343017578125
0.1905670166015625
0.1934967041015625
0.2049407958984375
0.22943115234375
0.2649993896484375
0.3050079345703125
0.3577423095703125
0.44110107421875
0.5504608154296875
0.66119384765625
0.7045440673828125
0.6371612548828125
0.53631591796875
0.4407806396484375
0.3540802001953125
0.2940216064453125
0.2996063232421875
0.3539886474609375
0.39752197265625
0.4102020263671875
0.3910675048828125
0.35467529296875
0.3107757568359375
0.2696685791015625
0.2399139404296875
0.222381591796875
0.2083282470703125
0.1847991943359375
0.15142822265625
0.1061553955078125
0.0554351806640625
0.00091552734375
-0.0429840087890625
-0.0750732421875
-0.09869384765625
-0.1128387451171875
-0.1202545166015625
-0.1238250732421875
-0.126617431640625
-0.1327056884765625
-0.1447906494140625
-0.15875244140625
-0.168548583984375
-0.1740875244140625
-0.17852783203125
-0.18402099609375
-0.1901092529296875
-0.19720458984375
-0.2037506103515625
-0.21075439453125
-0.2157440185546875
-0.21441650390625
-0.2111663818359375
-0.2095184326171875
-0.20819091796875
-0.2047576904296875
-0.2025604248046875
-0.202972412109375
-0.204437255859375
-0.2039337158203125
-0.2052154541015625
-0.2099761962890625
-0.20709228515625
-0.20086669921875
-0.1934051513671875
-0.1847076416015625
-0.1781158447265625
-0.1771087646484375
-0.1815948486328125
-0.1882781982421875
-0.1943206787109375
-0.19610595703125
-0.19354248046875
-0.1908416748046875
-0.1905670166015625
-0.1893768310546875
-0.1908416748046875
-0.1930389404296875
-0.19281005859375
-0.1884613037109375
-0.18218994140625
-0.1798553466796875
-0.179351806640625
-0.17852783203125
-0.1775665283203125
-0.1754608154296875
-0.1751861572265625
-0.1759185791015625
-0.1762847900390625
-0.1762847900390625
-0.1753692626953125
-0.1765594482421875
-0.17926025390625
-0.1805877685546875
-0.1784820556640625
-0.1738128662109375
-0.17193603515625
-0.1654815673828125
-0.1595306396484375
-0.1572418212890625
-0.159393310546875
-0.1593475341796875
-0.15838623046875
-0.1572418212890625
-0.1564178466796875
-0.1537628173828125
-0.1511993408203125
-0.146484375
-0.1429595947265625
-0.1421356201171875
-0.1415863037109375
-0.142730712890625
-0.14337158203125
-0.1436920166015625
-0.144561767578125
-0.1398468017578125
-0.13421630859375
-0.135955810546875
-0.1393890380859375
-0.1404876708984375
-0.139984130859375
-0.1424102783203125
-0.145660400390625
-0.1506500244140625
-0.1513824462890625
-0.1515655517578125
-0.1512908935546875
-0.15380859375
-0.1556396484375
-0.15618896484375
-0.15802001953125
-0.1622772216796875
-0.16021728515625
-0.1582489013671875
-0.1599884033203125
-0.1610870361328125
-0.1617279052734375
-0.16094970703125
-0.1610870361328125
-0.1634674072265625
-0.1662139892578125
-0.1695098876953125
-0.170379638671875
-0.1689605712890625
-0.1692352294921875
-0.1741790771484375
-0.1801300048828125
-0.1838836669921875
-0.1845245361328125
-0.18438720703125
-0.185577392578125
-0.18988037109375
-0.1953277587890625
-0.1941375732421875
-0.1894683837890625
-0.189697265625
-0.191162109375
-0.1938629150390625
-0.1959686279296875
-0.1931304931640625
-0.1920318603515625
-0.1908416748046875
-0.1886444091796875
-0.1859893798828125
-0.1814117431640625
-0.1766510009765625
-0.1744537353515625
-0.1735382080078125
-0.1693267822265625
-0.1676788330078125
-0.1669464111328125
-0.1631011962890625
-0.15692138671875
-0.1479034423828125
-0.1411285400390625
-0.1366424560546875
-0.1307830810546875
-0.1256561279296875
-0.1204376220703125
-0.1152191162109375
-0.1118316650390625
-0.1088104248046875
-0.1077117919921875
-0.104644775390625
-0.09686279296875
-0.0893096923828125
-0.08001708984375
-0.0681610107421875
-0.061065673828125
-0.0539703369140625
-0.0421600341796875
-0.029754638671875
-0.017303466796875
-0.0051727294921875
0.0032501220703125
0.0038909912109375
0.0038909912109375
0.004852294921875
0.0073699951171875
0.0099334716796875
0.0104827880859375
0.013641357421875
0.0206451416015625
0.0299835205078125
0.0342864990234375
0.03570556640625
0.0417022705078125
0.0524139404296875
0.0596466064453125
0.06317138671875
0.063262939453125
0.0619354248046875
0.06097412109375
0.0572662353515625
0.0555267333984375
0.05511474609375
0.053558349609375
0.05108642578125
0.0479278564453125
0.0471954345703125
0.0492095947265625
0.0534210205078125
0.0559844970703125
0.0567169189453125
0.0522308349609375
0.0470123291015625
0.0428009033203125
0.0383148193359375
0.0350189208984375
0.0317230224609375
0.0286102294921875
0.0273284912109375
0.0288848876953125
0.0300750732421875
0.0301666259765625
0.02984619140625
0.0241241455078125
0.0172576904296875
0.014556884765625
0.0160675048828125
0.0135040283203125
0.0128631591796875
0.0167083740234375
0.015426635742187498
0.013641357421875
0.0131378173828125
0.015426635742187498
0.0193634033203125
0.0214691162109375
0.019134521484375
0.0189971923828125
0.0181732177734375
0.0157012939453125
0.0112152099609375
0.0074615478515625
0.0061798095703125
0.00677490234375
0.0123138427734375
0.012451171875
0.0047149658203125
-0.0041656494140625
-0.009246826171875
-0.0107574462890625
-0.0124053955078125
-0.0106658935546875
-0.0091552734375
-0.0087432861328125
-0.0049896240234375
0.0029754638671875
0.0083770751953125
0.0102996826171875
0.0075531005859375
0.0055389404296875
0.0033416748046875
-0.0032501220703125
-0.0081939697265625
-0.00421142578125
-0.00128173828125
-0.0027008056640625
-0.0001373291015625
-0.0009613037109375
-0.0041656494140625
-0.0053558349609375
-0.0021514892578125
0.0019683837890625
0.00457763671875
0.0065460205078125
0.006134033203125
0.0022430419921875
0.0044403076171875
0.0055389404296875
0.0068206787109375
0.0085601806640625
0.0104827880859375
0.0126800537109375
0.0175323486328125
0.0248565673828125
0.0237579345703125
0.022064208984375
0.0206451416015625
0.0163421630859375
0.0134124755859375
0.01263427734375
0.013641357421875
0.0088348388671875
0.0014190673828125
-0.0015106201171875
0.0043487548828125
0.01007080078125
0.0112152099609375
0.0098419189453125
0.0083770751953125
0.0095672607421875
0.00897216796875
0.0071868896484375
0.0088348388671875
0.0159759521484375
0.029388427734375
0.0360260009765625
0.0343780517578125
0.02947998046875
0.0256805419921875
0.0254974365234375
0.0259552001953125
0.0252227783203125
0.0229339599609375
0.0163421630859375
0.0100250244140625
0.0048980712890625
0.0019683837890625
0.0002288818359375
0.000732421875
0.002655029296875
0.0036163330078125
0.0021514892578125
0.0002288818359375
-0.0018768310546875
-0.005126953125
-0.0059051513671875
-0.00750732421875
-0.0095672607421875
-0.00640869140625
-0.00201416015625
-0.0022430419921875
-0.0017852783203125
0.001556396484375
0.004852294921875
0.00714111328125
0.0090179443359375
0.010345458984375
0.0117645263671875
0.0168914794921875
0.020965576171875
0.0200958251953125
0.0146026611328125
0.0053558349609375
-0.0006866455078125
-0.00164794921875
-0.0006866455078125
0.00164794921875
0.0084228515625
0.0116729736328125
0.0137786865234375
0.0157470703125
0.0127716064453125
0.01300048828125
0.01593017578125
0.0185394287109375
0.0215606689453125
0.0209197998046875
0.0152435302734375
0.01171875
0.0100250244140625
0.008880615234375
0.0060882568359375
0.0035247802734375
0.0022430419921875
0.001373291015625
0.0018768310546875
0.0043487548828125
0.0046234130859375
0.00457763671875
0.0053558349609375
0.00714111328125
0.0076446533203125
0.0111236572265625
0.0117645263671875
0.0107574462890625
0.0108489990234375
0.0103912353515625
0.0077362060546875
0.005859375
0.0030670166015625
0.0025177001953125
0.0036163330078125
0.0037078857421875
0.0075531005859375
0.0100250244140625
0.00787353515625
0.0075531005859375
0.0027008056640625
-0.0047149658203125
-0.0070037841796875
-0.0062713623046875
-0.0018768310546875
0.0017852783203125
0.0057220458984375
0.0073699951171875
0.0061798095703125
0.006683349609375
0.0028839111328125
-0.0015106201171875
-0.0023345947265625
-0.0089263916015625
-0.0106658935546875
-0.0081024169921875
-0.0022430419921875
0.003204345703125
0.0090179443359375
0.012176513671875
0.0124969482421875
0.0144195556640625
0.018310546875
0.01959228515625
0.0215606689453125
0.0233001708984375
0.0237579345703125
0.024078369140625
0.0254058837890625
0.0214691162109375
0.0137786865234375
0.0086517333984375
0.0053558349609375
0.0027008056640625
0.001556396484375
0.0038909912109375
0.0031585693359375
0.0001373291015625
0.001190185546875
0.0051727294921875
0.00732421875
0.0058135986328125
0.0032501220703125
0.0025177001953125
0.005767822265625
0.00640869140625
0.0096588134765625
0.0119476318359375
0.01373291015625
0.0146942138671875
0.0141448974609375
0.0157928466796875
0.0157928466796875
0.015335083007812498
0.0149688720703125
0.0137786865234375
0.013092041015625
0.01593017578125
0.01922607421875
0.02178955078125
0.0222930908203125
0.0245819091796875
0.0297088623046875
0.03680419921875
0.0408782958984375
0.0471038818359375
0.051544189453125
0.0552520751953125
0.057220458984375
0.0575408935546875
0.0561676025390625
0.05767822265625
0.0623016357421875
0.0704498291015625
0.0783233642578125
0.0882568359375
0.1016693115234375
0.1164093017578125
0.1266632080078125
0.1293182373046875
0.1282196044921875
0.1290435791015625
0.1295013427734375
0.1306915283203125
0.1317901611328125
0.1305999755859375
0.1252899169921875
0.1165008544921875
0.109771728515625
0.1046905517578125
0.10052490234375
0.0992889404296875
0.0987396240234375
0.09393310546875
0.0893096923828125
0.0794219970703125
0.0706329345703125
0.061798095703125
0.0588226318359375
0.0581817626953125
0.0577239990234375
0.04925537109375
0.039276123046875
0.030624389648437503
0.0258636474609375
0.0229339599609375
0.0181732177734375
0.01483154296875
0.013641357421875
0.0089263916015625
-0.0022430419921875
-0.0102081298828125
-0.0118560791015625
-0.0134124755859375
-0.0189971923828125
-0.024078369140625
-0.0258636474609375
-0.0265045166015625
-0.0298004150390625
-0.038543701171875
-0.0470123291015625
-0.0494842529296875
-0.0496673583984375
-0.0531463623046875
-0.0525054931640625
-0.0495758056640625
-0.0487518310546875
-0.04541015625
-0.0428009033203125
-0.0386810302734375
-0.0311279296875
-0.0254974365234375
-0.0256805419921875
-0.02508544921875
-0.0188140869140625
-0.0151519775390625
-0.0121307373046875
-0.0126800537109375
-0.0129547119140625
-0.0143280029296875
-0.0167999267578125
-0.02215576171875
-0.030853271484374997
-0.0380859375
-0.0382232666015625
-0.0391387939453125
-0.0460052490234375
-0.048614501953125
-0.0363006591796875
-0.0083770751953125
0.02783203125
0.0670623779296875
0.1031341552734375
0.1384735107421875
0.1707000732421875
0.1905670166015625
0.1983489990234375
0.1933135986328125
0.1920318603515625
0.20306396484375
0.2192230224609375
0.2369842529296875
0.2736053466796875
0.32244873046875
0.3679046630859375
0.4292449951171875
0.52166748046875
0.5989837646484375
0.5902862548828125
0.4855499267578125
0.3647003173828125
0.2571258544921875
0.1702880859375
0.1278533935546875
0.13897705078125
0.1909332275390625
0.2492523193359375
0.279144287109375
0.2933807373046875
0.2990570068359375
0.2917327880859375
0.2806549072265625
0.2769012451171875
0.2877044677734375
0.2892608642578125
0.2725982666015625
0.2307586669921875
0.179534912109375
0.1201629638671875
0.06097412109375
0.0049896240234375
-0.04595947265625
-0.08038330078125
-0.10272216796875
-0.1123809814453125
-0.1077117919921875
-0.1003875732421875
-0.1052398681640625
-0.1118316650390625
-0.1190643310546875
-0.12908935546875
-0.136688232421875
-0.1384735107421875
-0.14044189453125
-0.14666748046875
-0.154632568359375
-0.15875244140625
-0.16497802734375
-0.169647216796875
-0.1690521240234375
-0.1660308837890625
-0.1641998291015625
-0.1614532470703125
-0.1658935546875
-0.1736297607421875
-0.174041748046875
-0.1672210693359375
-0.1579742431640625
-0.1552276611328125
-0.1593475341796875
-0.165802001953125
-0.1671295166015625
-0.1647491455078125
-0.1626434326171875
-0.1645660400390625
-0.1634674072265625
-0.1587066650390625
-0.1504669189453125
-0.1446990966796875
-0.1438751220703125
-0.14483642578125
-0.1461639404296875
-0.14593505859375
-0.1457061767578125
-0.1422271728515625
-0.1405792236328125
-0.13970947265625
-0.13751220703125
-0.13916015625
-0.1352691650390625
-0.12872314453125
-0.1252899169921875
-0.1276702880859375
-0.1338043212890625
-0.1402587890625
-0.139251708984375
-0.1370086669921875
-0.1327972412109375
-0.1280364990234375
-0.12474060058593751
-0.1205291748046875
-0.1149444580078125
-0.1109161376953125
-0.1106414794921875
-0.1087646484375
-0.1063385009765625
-0.104095458984375
-0.1028594970703125
-0.103179931640625
-0.1062469482421875
-0.1099090576171875
-0.1104583740234375
-0.1116485595703125
-0.1130218505859375
-0.10986328125
-0.106475830078125
-0.10345458984375
-0.09979248046875
-0.100250244140625
-0.1067047119140625
-0.11279296875
-0.1159515380859375
-0.115081787109375
-0.1136627197265625
-0.1104583740234375
-0.1052398681640625
-0.101531982421875
-0.0973663330078125
-0.0974578857421875
-0.099700927734375
-0.0999755859375
-0.1034088134765625
-0.1035919189453125
-0.1004791259765625
-0.09869384765625
-0.0977325439453125
-0.0962677001953125
-0.0958099365234375
-0.0937042236328125
-0.092193603515625
-0.0911407470703125
-0.089447021484375
-0.09210205078125
-0.0940704345703125
-0.0940704345703125
-0.09869384765625
-0.1048736572265625
-0.1088104248046875
-0.1130218505859375
-0.1165008544921875
-0.11993408203125
-0.1253814697265625
-0.1268463134765625
-0.1266632080078125
-0.12652587890625
-0.1266632080078125
-0.1268463134765625
-0.1271209716796875
-0.1281280517578125
-0.1307830810546875
-0.1305084228515625
-0.1286773681640625
-0.1274871826171875
-0.1269378662109375
-0.13092041015625
-0.1370086669921875
-0.138885498046875
-0.1355438232421875
-0.1336212158203125
-0.1305084228515625
-0.1292266845703125
-0.12689208984375
-0.1204376220703125
-0.1152191162109375
-0.11370849609375
-0.1165924072265625
-0.1149444580078125
-0.11260986328125
-0.1062469482421875
-0.1016693115234375
-0.0984649658203125
-0.0953521728515625
-0.0904541015625
-0.08184814453125
-0.0743865966796875
-0.06866455078125
-0.0615234375
-0.0530548095703125
-0.0465545654296875
-0.0451812744140625
-0.0470123291015625
-0.0391387939453125
-0.0282440185546875
-0.0188140869140625
-0.0134124755859375
-0.0099334716796875
-0.00494384765625
0.0026092529296875
0.00677490234375
0.0118560791015625
0.0166168212890625
0.0222930908203125
0.0322723388671875
0.0417022705078125
0.0531463623046875
0.0619354248046875
0.06536865234375
0.0650482177734375
0.0614776611328125
0.0604705810546875
0.0640411376953125
0.0665130615234375
0.0688934326171875
0.0688934326171875
0.0688018798828125
0.0732879638671875
0.0764923095703125
0.0791473388671875
0.08441162109375
0.08734130859375
0.0906829833984375
0.092742919921875
0.0921478271484375
0.09246826171875
0.092193603515625
0.0892181396484375
0.08587646484375
0.0857391357421875
0.0823516845703125
0.0789642333984375
0.07562255859375
0.0743865966796875
0.0721893310546875
0.0728302001953125
0.0738372802734375
0.075164794921875
0.07415771484375
0.0670623779296875
0.0603790283203125
0.057403564453125
0.0571746826171875
0.0604705810546875
0.0606536865234375
0.0628509521484375
0.0614776611328125
0.0583648681640625
0.0562591552734375
0.05621337890625
0.0545196533203125
0.05548095703125
0.057952880859375
0.05877685546875
0.05548095703125
0.0512237548828125
0.0494842529296875
0.04705810546875
0.0424346923828125
0.0404205322265625
0.0397796630859375
0.0410614013671875
0.0397796630859375
0.0405120849609375
0.038543701171875
0.0322723388671875
0.0321807861328125
0.0347442626953125
0.0386810302734375
0.0415191650390625
0.0409698486328125
0.0394134521484375
0.038177490234375
0.0398712158203125
0.0417938232421875
0.04486083984375
0.0452728271484375
0.0437164306640625
0.0427093505859375
0.0443572998046875
0.04669189453125
0.04742431640625
0.04669189453125
0.047332763671875
0.04779052734375
0.0450897216796875
0.0410614013671875
0.0350189208984375
0.0317230224609375
0.0298919677734375
0.02801513671875
0.0270538330078125
0.0263214111328125
0.0233001708984375
0.0178070068359375
0.011260986328125
0.0126800537109375
0.0158843994140625
0.0211944580078125
0.0269622802734375
0.0296173095703125
0.0314483642578125
0.03424072265625
0.0341949462890625
0.0315399169921875
0.02764892578125
0.0262298583984375
0.02728271484375
0.025543212890625
0.0234832763671875
0.02325439453125
0.026458740234375
0.0256805419921875
0.02764892578125
0.0304412841796875
0.0300750732421875
0.0285186767578125
0.03021240234375
0.0341033935546875
0.0344696044921875
0.0340118408203125
0.0331878662109375
0.0314483642578125
0.0276031494140625
0.0273284912109375
0.0296173095703125
0.03204345703125
0.0335540771484375
0.0351104736328125
0.0361175537109375
0.03643798828125
0.0355682373046875
0.0335540771484375
0.0323638916015625
0.027923583984375
0.0233917236328125
0.0217437744140625
0.02069091796875
0.0222930908203125
0.0240325927734375
0.0228424072265625
0.0193634033203125
0.0189971923828125
0.0187225341796875
0.01593017578125
0.01116943359375
0.0088348388671875
0.0091552734375
0.01025390625
0.0146026611328125
0.0179901123046875
0.0183563232421875
0.0192718505859375
0.0185394287109375
0.0173492431640625
0.0202789306640625
0.0254974365234375
0.0276031494140625
0.0259552001953125
0.0258636474609375
0.0241241455078125
0.0256805419921875
0.0279693603515625
0.0261383056640625
0.0233917236328125
0.0240325927734375
0.0262298583984375
0.0305328369140625
0.031173706054687503
0.0268707275390625
0.02288818359375
0.0200042724609375
0.01922607421875
0.02398681640625
0.0238037109375
0.0225677490234375
0.0218353271484375
0.0216522216796875
0.0211029052734375
0.0177154541015625
0.0119476318359375
0.00970458984375
0.011077880859375
0.0130462646484375
0.01336669921875
0.0119476318359375
0.0115814208984375
0.0139617919921875
0.0125885009765625
0.010162353515625
0.0124969482421875
0.0146942138671875
0.01629638671875
0.0163421630859375
0.0159759521484375
0.0171661376953125
0.0146942138671875
0.0146026611328125
0.016021728515625
0.0160675048828125
0.01483154296875
0.0124969482421875
0.0114898681640625
0.01080322265625
0.011444091796875
0.0111236572265625
0.0113983154296875
0.0124969482421875
0.0137786865234375
0.0142364501953125
0.0178985595703125
0.0193634033203125
0.017578125
0.0120391845703125
0.0090179443359375
0.0075531005859375
0.00457763671875
0.0009613037109375
0.0002288818359375
0.0004119873046875
0.0010528564453125
0.0043487548828125
0.0102081298828125
0.0159759521484375
0.0222930908203125
0.030670166015624997
0.0367584228515625
0.0394134521484375
0.0420684814453125
0.04486083984375
0.04742431640625
0.0520477294921875
0.0560760498046875
0.058502197265625
0.059234619140625
0.0603790283203125
0.0661468505859375
0.0713653564453125
0.07635498046875
0.08056640625
0.0838165283203125
0.0881195068359375
0.093658447265625
0.1054229736328125
0.1166839599609375
0.1280364990234375
0.1404876708984375
0.1497344970703125
0.15618896484375
0.1570587158203125
0.1544036865234375
0.150604248046875
0.1478118896484375
0.1420440673828125
0.1339874267578125
0.1255645751953125
0.1204376220703125
0.1183319091796875
0.11773681640625
0.1128387451171875
0.1089935302734375
0.1071624755859375
0.1079864501953125
0.10711669921875
0.1017608642578125
0.0956268310546875
0.0874786376953125
0.0774078369140625
0.065277099609375
0.0536956787109375
0.043853759765625
0.0372161865234375
0.0342864990234375
0.0326385498046875
0.030624389648437503
0.0261383056640625
0.020050048828125
0.014190673828125
0.0072784423828125
0.0015106201171875
-0.0011444091796875
-0.0018768310546875
-0.0023345947265625
-0.0037078857421875
-0.0048980712890625
-0.0076446533203125
-0.0107574462890625
-0.015335083007812498
-0.0209197998046875
-0.0273284912109375
-0.0354766845703125
-0.0394134521484375
-0.040374755859375
-0.0391387939453125
-0.0362091064453125
-0.03387451171875
-0.0323638916015625
-0.034515380859375
-0.0379486083984375
-0.0421600341796875
-0.0422515869140625
-0.039459228515625
-0.0384063720703125
-0.0395050048828125
-0.040008544921875
-0.0371246337890625
-0.0375823974609375
-0.04046630859375
-0.0434417724609375
-0.0481109619140625
-0.0545196533203125
-0.05767822265625
-0.0547027587890625
-0.05145263671875
-0.0535125732421875
-0.0521392822265625
-0.0318145751953125
0.0014190673828125
0.0378570556640625
0.0761260986328125
0.112518310546875
0.15216064453125
0.1867218017578125
0.2132720947265625
0.2249908447265625
0.2216033935546875
0.2233428955078125
0.23382568359375
0.24659729003906253
0.27044677734375
0.3126983642578125
0.360626220703125
0.4134979248046875
0.4914093017578125
0.6004486083984375
0.6854095458984375
0.6773529052734375
0.5737152099609375
0.4583587646484375
0.3541717529296875
0.25946044921875
0.2086029052734375
0.219451904296875
0.2780914306640625
0.31915283203125
0.3222198486328125
0.3072967529296875
0.2844085693359375
0.2608795166015625
0.2397308349609375
0.2314910888671875
0.2324066162109375
0.2335052490234375
0.2227020263671875
0.1962432861328125
0.1540374755859375
0.1007537841796875
0.0463714599609375
-0.0030670166015625
-0.0418853759765625
-0.0717315673828125
-0.09429931640625
-0.1067047119140625
-0.10784912109375
-0.1069793701171875
-0.1111907958984375
-0.1195220947265625
-0.130279541015625
-0.142913818359375
-0.1539459228515625
-0.1621856689453125
-0.1664886474609375
-0.1681365966796875
-0.1696014404296875
-0.1692352294921875
-0.1656646728515625
-0.1663055419921875
-0.1677703857421875
-0.1680908203125
-0.1705169677734375
-0.1732177734375
-0.17413330078125
-0.17376708984375
-0.172393798828125
-0.172210693359375
-0.1726226806640625
-0.17266845703125
-0.1732635498046875
-0.1712493896484375
-0.1692352294921875
-0.167449951171875
-0.1682281494140625
-0.1710662841796875
-0.1739501953125
-0.1759185791015625
-0.1750946044921875
-0.174591064453125
-0.1759185791015625
-0.178253173828125
-0.1792144775390625
-0.1777496337890625
-0.1750946044921875
-0.173492431640625
-0.1719818115234375
-0.1727142333984375
-0.1729888916015625
-0.1703338623046875
-0.1692352294921875
-0.1708831787109375
-0.1758270263671875
-0.1799468994140625
-0.1818695068359375
-0.18218994140625
-0.177337646484375
-0.1684112548828125
-0.1600799560546875
-0.1530303955078125
-0.149505615234375
-0.1473541259765625
-0.14556884765625
-0.1435546875
-0.1424102783203125
-0.14007568359375
-0.138702392578125
-0.138519287109375
-0.1376953125
-0.137237548828125
-0.1311492919921875
-0.1236419677734375
-0.1213531494140625
-0.1190185546875
-0.1191558837890625
-0.1213531494140625
-0.12496948242187499
-0.12409973144531249
-0.1197967529296875
-0.116363525390625
-0.114166259765625
-0.11334228515625
-0.1131134033203125
-0.1121978759765625
-0.10968017578125
-0.10675048828125
-0.1029510498046875
-0.1017608642578125
-0.10382080078125
-0.10675048828125
-0.1090850830078125
-0.1106414794921875
-0.1084442138671875
-0.1055145263671875
-0.1017608642578125
-0.1010284423828125
-0.1019439697265625
-0.1081695556640625
-0.1126556396484375
-0.1119232177734375
-0.1117401123046875
-0.1114654541015625
-0.1110076904296875
-0.1125640869140625
-0.116729736328125
-0.1191558837890625
-0.1197052001953125
-0.1194305419921875
-0.1161346435546875
-0.11297607421875
-0.1119232177734375
-0.1164093017578125
-0.1212615966796875
-0.125518798828125
-0.128814697265625
-0.13238525390625
-0.1367340087890625
-0.1381072998046875
-0.1379241943359375
-0.1396636962890625
-0.1408538818359375
-0.1394805908203125
-0.1371002197265625
-0.1372833251953125
-0.1364593505859375
-0.138336181640625
-0.13916015625
-0.13531494140625
-0.1332550048828125
-0.1339874267578125
-0.1343536376953125
-0.1335296630859375
-0.1357269287109375
-0.1362762451171875
-0.1330718994140625
-0.126983642578125
-0.12336730957031251
-0.1193389892578125
-0.1138458251953125
-0.1105499267578125
-0.107391357421875
-0.10418701171875
-0.1011199951171875
-0.0992889404296875
-0.098602294921875
-0.097686767578125
-0.0934295654296875
-0.0870208740234375
-0.0818023681640625
-0.0738372802734375
-0.0647735595703125
-0.0550689697265625
-0.0481109619140625
-0.041015625
-0.0343780517578125
-0.0277862548828125
-0.021148681640625
-0.0131378173828125
-0.006317138671875
0.0016021728515625
0.0094757080078125
0.0175323486328125
0.024261474609375
0.0296173095703125
0.0339202880859375
0.03497314453125
0.0380859375
0.04266357421875
0.0471954345703125
0.0500335693359375
0.0556182861328125
0.0630340576171875
0.0673370361328125
0.071685791015625
0.0732879638671875
0.0744781494140625
0.0742034912109375
0.0731048583984375
0.0720977783203125
0.0701751708984375
0.070953369140625
0.07086181640625
0.0717315673828125
0.074066162109375
0.076446533203125
0.07672119140625
0.0742950439453125
0.0747528076171875
0.0727386474609375
0.0710906982421875
0.07012939453125
0.0688934326171875
0.0734710693359375
0.07379150390625
0.069488525390625
0.066741943359375
0.06646728515625
0.0655975341796875
0.062255859375
0.05712890625
0.0547027587890625
0.0544281005859375
0.057952880859375
0.0615692138671875
0.0632171630859375
0.0641326904296875
0.06390380859375
0.06280517578125
0.06175231933593749
0.06175231933593749
0.0618438720703125
0.0614776611328125
0.06138610839843749
0.0596466064453125
0.0569915771484375
0.0557098388671875
0.0531463623046875
0.0488433837890625
0.0446319580078125
0.0442657470703125
0.0445404052734375
0.0449981689453125
0.0444488525390625
0.0419769287109375
0.03826904296875
0.0341033935546875
0.0319976806640625
0.0336456298828125
0.0336456298828125
0.03131103515625
0.0352020263671875
0.0406036376953125
0.0427093505859375
0.0392303466796875
0.0373992919921875
0.0358428955078125
0.0391387939453125
0.0422515869140625
0.0427093505859375
0.0465545654296875
0.05035400390625
0.0512237548828125
0.0501708984375
0.050811767578125
0.0502166748046875
0.0509033203125
0.0543365478515625
0.055755615234375
0.05255126953125
0.0505828857421875
0.050262451171875
0.0467376708984375
0.0438995361328125
0.0399627685546875
0.0355682373046875
0.0335540771484375
0.03533935546875
0.03826904296875
0.04486083984375
0.048797607421875
0.050628662109375
0.0500335693359375
0.0474700927734375
0.047149658203125
0.0453643798828125
0.0439910888671875
0.044219970703125
0.0428009033203125
0.042572021484375
0.0412445068359375
0.0397796630859375
0.0398712158203125
0.0413818359375
0.0413360595703125
0.0394134521484375
0.0402374267578125
0.0395965576171875
0.0372161865234375
0.037078857421875
0.0409698486328125
0.0432586669921875
0.0462799072265625
0.045867919921875
0.0461883544921875
0.04742431640625
0.04669189453125
0.0451812744140625
0.04522705078125
0.0465545654296875
0.0459136962890625
0.04449462890625
0.04559326171875
0.0472869873046875
0.0445404052734375
0.04229736328125
0.0421600341796875
0.0425262451171875
0.0406036376953125
0.0381317138671875
0.0369415283203125
0.03936767578125
0.0418853759765625
0.0394134521484375
0.0347442626953125
0.0276031494140625
0.0226593017578125
0.02288818359375
0.0255889892578125
0.0282440185546875
0.0286102294921875
0.0297088623046875
0.0319976806640625
0.0358428955078125
0.0401458740234375
0.0391387939453125
0.033966064453125
0.029571533203125
0.0298919677734375
0.030990600585937503
0.0332794189453125
0.030807495117187503
0.0227508544921875
0.0178985595703125
0.0179901123046875
0.0183563232421875
0.0200958251953125
0.0208282470703125
0.02325439453125
0.0278778076171875
0.0293426513671875
0.028656005859375
0.0298004150390625
0.0326385498046875
0.0361175537109375
0.0410614013671875
0.0415191650390625
0.0392303466796875
0.0368499755859375
0.03533935546875
0.0336456298828125
0.0299835205078125
0.0281524658203125
0.02911376953125
0.0304412841796875
0.0314483642578125
0.031951904296875
0.0340118408203125
0.0322723388671875
0.0274658203125
0.0237579345703125
0.0225677490234375
0.0211029052734375
0.0215606689453125
0.0244903564453125
0.0275115966796875
0.0287017822265625
0.0279693603515625
0.0254058837890625
0.02471923828125
0.0286102294921875
0.0321807861328125
0.0355224609375
0.0397796630859375
0.0453643798828125
0.0474700927734375
0.0489349365234375
0.0526885986328125
0.0567169189453125
0.0640411376953125
0.0718231201171875
0.0750274658203125
0.075347900390625
0.0727386474609375
0.0685272216796875
0.0693511962890625
0.074249267578125
0.08258056640625
0.0915069580078125
0.0970916748046875
0.09759521484375
0.09979248046875
0.1071624755859375
0.12103271484375
0.1338958740234375
0.1452484130859375
0.1538543701171875
0.161041259765625
0.16644287109375
0.16717529296875
0.1653900146484375
0.1624603271484375
0.1632843017578125
0.1652984619140625
0.1603546142578125
0.153167724609375
0.1459808349609375
0.14190673828125
0.1425933837890625
0.1458892822265625
0.145477294921875
0.1418609619140625
0.13421630859375
0.1238250732421875
0.1129302978515625
0.1050567626953125
0.1002960205078125
0.0956268310546875
0.087799072265625
0.0795135498046875
0.0681610107421875
0.0580902099609375
0.0498046875
0.0428924560546875
0.0363922119140625
0.0281524658203125
0.0215606689453125
0.0161590576171875
0.00787353515625
-0.0015106201171875
-0.00787353515625
-0.0133209228515625
-0.0189971923828125
-0.0198211669921875
-0.0182647705078125
-0.0168914794921875
-0.0157470703125
-0.0157928466796875
-0.017578125
-0.02655029296875
-0.035064697265625
-0.0430755615234375
-0.0454559326171875
-0.0447235107421875
-0.0447235107421875
-0.0460968017578125
-0.0464630126953125
-0.0447235107421875
-0.0439453125
-0.0432586669921875
-0.0398712158203125
-0.0380401611328125
-0.035797119140625
-0.0328216552734375
-0.0316314697265625
-0.0333709716796875
-0.0369873046875
-0.041107177734375
-0.0464630126953125
-0.0559844970703125
-0.0655975341796875
-0.0699005126953125
-0.0718231201171875
-0.0714569091796875
-0.0728302001953125
-0.070770263671875
-0.055755615234375
-0.02288818359375
0.0215606689453125
0.06756591796875
0.1075286865234375
0.15179443359375
0.1956939697265625
0.2332305908203125
0.24815368652343753
0.24920654296875
0.2578125
0.2847747802734375
0.3188323974609375
0.3633270263671875
0.4084625244140625
0.4590911865234375
0.5326995849609375
0.6375274658203125
0.7739410400390625
0.9163055419921875
0.9792938232421875
0.9127349853515625
0.7983856201171875
0.6850433349609375
0.5811309814453125
0.51324462890625
0.4947052001953125
0.5092620849609375
0.51416015625
0.4789581298828125
0.4081878662109375
0.3233184814453125
0.2416534423828125
0.1703338623046875
0.1144866943359375
0.07708740234375
0.06536865234375
0.0568084716796875
0.0374908447265625
0.0098419189453125
-0.0220184326171875
-0.0456390380859375
-0.060699462890625
-0.0703582763671875
-0.0754852294921875
-0.087615966796875
-0.1044158935546875
-0.1219940185546875
-0.1385650634765625
-0.15252685546875
-0.1631927490234375
-0.173675537109375
-0.1830596923828125
-0.1887359619140625
-0.1885528564453125
-0.1896514892578125
-0.1937713623046875
-0.1991729736328125
-0.2072296142578125
-0.2132720947265625
-0.2182159423828125
-0.21881103515625
-0.220001220703125
-0.21917724609375
-0.2169342041015625
-0.2137298583984375
-0.21002197265625
-0.2069549560546875
-0.206085205078125
-0.2067718505859375
-0.207733154296875
-0.207733154296875
-0.2059478759765625
-0.2023773193359375
-0.2008209228515625
-0.2032470703125
-0.2058563232421875
-0.2092437744140625
-0.2154693603515625
-0.2186737060546875
-0.2198638916015625
-0.220458984375
-0.2173004150390625
-0.21441650390625
-0.2097930908203125
-0.2052154541015625
-0.2005462646484375
-0.1978912353515625
-0.1942291259765625
-0.19024658203125
-0.18731689453125
-0.1869049072265625
-0.18658447265625
-0.1870880126953125
-0.1861724853515625
-0.1856231689453125
-0.1837921142578125
-0.1801300048828125
-0.1748199462890625
-0.16900634765625
-0.1653900146484375
-0.163055419921875
-0.163787841796875
-0.166259765625
-0.1671295166015625
-0.1664886474609375
-0.165802001953125
-0.161865234375
-0.1575164794921875
-0.1517486572265625
-0.148590087890625
-0.1499176025390625
-0.1530303955078125
-0.15216064453125
-0.1511077880859375
-0.15179443359375
-0.1497802734375
-0.1435546875
-0.1360015869140625
-0.133209228515625
-0.136322021484375
-0.1422271728515625
-0.1458892822265625
-0.1461639404296875
-0.14593505859375
-0.1454315185546875
-0.1425018310546875
-0.1391143798828125
-0.1373748779296875
-0.1351776123046875
-0.13385009765625
-0.132843017578125
-0.1308746337890625
-0.1295928955078125
-0.1292266845703125
-0.1284027099609375
-0.1273956298828125
-0.1279449462890625
-0.1295928955078125
-0.131103515625
-0.1336212158203125
-0.1326141357421875
-0.1317901611328125
-0.1326141357421875
-0.1359100341796875
-0.1391143798828125
-0.13970947265625
-0.1403045654296875
-0.1436004638671875
-0.1468048095703125
-0.148406982421875
-0.1535797119140625
-0.1565093994140625
-0.1565093994140625
-0.156463623046875
-0.15802001953125
-0.1572418212890625
-0.1566009521484375
-0.1592559814453125
-0.1598968505859375
-0.163330078125
-0.1662139892578125
-0.16754150390625
-0.1700592041015625
-0.16937255859375
-0.1677703857421875
-0.1652984619140625
-0.1637420654296875
-0.1632843017578125
-0.1648406982421875
-0.1633758544921875
-0.1597137451171875
-0.154815673828125
-0.1480865478515625
-0.1455230712890625
-0.147308349609375
-0.1482696533203125
-0.1493682861328125
-0.14410400390625
-0.1381072998046875
-0.1360931396484375
-0.1344451904296875
-0.1290435791015625
-0.1209869384765625
-0.1147613525390625
-0.1095428466796875
-0.1056976318359375
-0.1030426025390625
-0.09906005859375
-0.09393310546875
-0.088531494140625
-0.08074951171875
-0.0702667236328125
-0.06207275390624999
-0.055206298828125
-0.0481109619140625
-0.0428466796875
-0.0382232666015625
-0.0333709716796875
-0.028472900390625
-0.0248565673828125
-0.0222930908203125
-0.0165252685546875
-0.0075531005859375
0.0005950927734375
0.0054473876953125
0.0058135986328125
0.00531005859375
0.0047149658203125
0.0097503662109375
0.0196380615234375
0.02728271484375
0.0337371826171875
0.0396881103515625
0.0446319580078125
0.0472869873046875
0.04852294921875
0.04449462890625
0.0410614013671875
0.0400543212890625
0.0406951904296875
0.0414276123046875
0.0417022705078125
0.0413360595703125
0.039825439453125
0.0413360595703125
0.0418853759765625
0.0384063720703125
0.0345611572265625
0.0320892333984375
0.0313568115234375
0.03277587890625
0.03460693359375
0.03643798828125
0.03515625
0.0304412841796875
0.0252227783203125
0.0240325927734375
0.02252197265625
0.0216522216796875
0.0209197998046875
0.0174407958984375
0.0140533447265625
0.0122222900390625
0.0123138427734375
0.0130462646484375
0.0120391845703125
0.00933837890625
0.0073699951171875
0.0055389404296875
0.0040740966796875
0.0043487548828125
0.0065460205078125
0.0104827880859375
0.01739501953125
0.0211944580078125
0.0210113525390625
0.0226593017578125
0.0246734619140625
0.0262298583984375
0.0258636474609375
0.0254058837890625
0.025360107421875
0.0241241455078125
0.0218353271484375
0.022613525390625
0.0211944580078125
0.0172576904296875
0.0137786865234375
0.00970458984375
0.00714111328125
0.0053558349609375
0.0039825439453125
0.0022430419921875
0.0016021728515625
0.0036163330078125
0.0063629150390625
0.0060882568359375
0.0058135986328125
0.0065460205078125
0.0079193115234375
0.0106658935546875
0.012908935546875
0.01446533203125
0.014923095703125
0.0134124755859375
0.01043701171875
0.0082855224609375
0.0095672607421875
0.0093841552734375
0.0069122314453125
0.00750732421875
0.0069122314453125
0.0023345947265625
-0.0025177001953125
-0.004852294921875
-0.0047149658203125
-0.0041656494140625
-0.0036163330078125
-0.005126953125
-0.004302978515625
-0.0029754638671875
-0.0010528564453125
0.0007781982421875
-0.0003662109375
-0.004119873046875
-0.0058135986328125
-0.00421142578125
-0.0019683837890625
0.0029754638671875
0.006866455078125
0.0114898681640625
0.01593017578125
0.0193634033203125
0.0211029052734375
0.0197296142578125
0.015335083007812498
0.011444091796875
0.0112152099609375
0.015380859375
0.0170745849609375
0.0186309814453125
0.0198211669921875
0.0183563232421875
0.0178985595703125
0.015518188476562498
0.0148773193359375
0.0124969482421875
0.0111236572265625
0.0124053955078125
0.01226806640625
0.0113983154296875
0.0114898681640625
0.0109405517578125
0.0111236572265625
0.0091552734375
0.0047149658203125
0.0027923583984375
0.006866455078125
0.0147857666015625
0.0222930908203125
0.0242156982421875
0.0226593017578125
0.0207366943359375
0.0176239013671875
0.0161590576171875
0.0135040283203125
0.01263427734375
0.0142822265625
0.0170745849609375
0.0183563232421875
0.0203704833984375
0.021331787109375
0.0193634033203125
0.0150604248046875
0.0129547119140625
0.0115814208984375
0.0070953369140625
0.00146484375
-0.00347900390625
-0.00494384765625
-0.0032501220703125
-0.0044403076171875
-0.00640869140625
-0.0060882568359375
-0.00421142578125
0.00018310546875
0.0043487548828125
0.0017852783203125
-0.00238037109375
-0.0040740966796875
-0.0032958984375
-0.000732421875
0.0016021728515625
0.00164794921875
-0.0012359619140625
0.0007781982421875
0.0047149658203125
0.0069580078125
0.0050811767578125
0.0024261474609375
0.0006866455078125
0.0011444091796875
0.003204345703125
0.005401611328125
0.00567626953125
0.0065460205078125
0.0095672607421875
0.0138702392578125
0.0214691162109375
0.0289306640625
0.0280609130859375
0.0258636474609375
0.0265960693359375
0.0322723388671875
0.0389556884765625
0.0471038818359375
0.0545196533203125
0.0622100830078125
0.0698089599609375
0.0816650390625
0.0921478271484375
0.1000213623046875
0.1111907958984375
0.1236419677734375
0.1335296630859375
0.1417694091796875
0.1479034423828125
0.14849853515625
0.1511077880859375
0.15838623046875
0.1670379638671875
0.17156982421875
0.1680450439453125
0.1601715087890625
0.1513824462890625
0.1449737548828125
0.1407623291015625
0.1362762451171875
0.1317901611328125
0.1216278076171875
0.10858154296875
0.1007537841796875
0.09686279296875
0.0901336669921875
0.0820770263671875
0.07562255859375
0.0731048583984375
0.0699462890625
0.0690765380859375
0.07049560546875
0.0636749267578125
0.0464630126953125
0.0297088623046875
0.0175323486328125
0.0059051513671875
-0.0047149658203125
-0.0144195556640625
-0.0214691162109375
-0.0316314697265625
-0.0389556884765625
-0.0422515869140625
-0.0435791015625
-0.0466461181640625
-0.0505828857421875
-0.0535125732421875
-0.054290771484375
-0.0545196533203125
-0.0540618896484375
-0.0550689697265625
-0.0589141845703125
-0.06243896484374999
-0.0631256103515625
-0.0642242431640625
-0.06138610839843749
-0.0587310791015625
-0.0564422607421875
-0.0552520751953125
-0.0564422607421875
-0.0639495849609375
-0.0692138671875
-0.07342529296875
-0.0749359130859375
-0.0745697021484375
-0.0743865966796875
-0.07269287109375
-0.0686187744140625
-0.0707244873046875
-0.0785064697265625
-0.0815277099609375
-0.08441162109375
-0.0854644775390625
-0.0865631103515625
-0.0857391357421875
-0.0824432373046875
-0.07763671875
-0.0568084716796875
-0.0228424072265625
0.01666259765625
0.0600128173828125
0.0998382568359375
0.14154052734375
0.1822357177734375
0.2155609130859375
0.2278289794921875
0.23529052734375
0.2543792724609375
0.2938385009765625
0.3369598388671875
0.3798980712890625
0.4219207763671875
0.4647674560546875
0.525238037109375
0.6122589111328125
0.735443115234375
0.8484649658203125
0.8526763916015625
0.7554473876953125
0.6381683349609375
0.5349884033203125
0.4490203857421875
0.40960693359375
0.4242095947265625
0.4573516845703125
0.4586334228515625
0.4164276123046875
0.3416290283203125
0.2572174072265625
0.1794891357421875
0.1138458251953125
0.0622100830078125
0.0331878662109375
0.0291595458984375
0.0202789306640625
0.0036163330078125
-0.025177001953125
-0.0574951171875
-0.076263427734375
-0.0868377685546875
-0.0919647216796875
-0.0991973876953125
-0.1139373779296875
-0.1315155029296875
-0.1491851806640625
-0.1659393310546875
-0.177886962890625
-0.187408447265625
-0.19500732421875
-0.1988983154296875
-0.2023773193359375
-0.204620361328125
-0.2073211669921875
-0.2113037109375
-0.2156524658203125
-0.2189483642578125
-0.2172088623046875
-0.2162017822265625
-0.2172088623046875
-0.218902587890625
-0.2180328369140625
-0.2180328369140625
-0.2183990478515625
-0.2190399169921875
-0.2201385498046875
-0.2196807861328125
-0.22119140625
-0.22174072265625
-0.2198638916015625
-0.2204132080078125
-0.2220611572265625
-0.2223358154296875
-0.22174072265625
-0.2210540771484375
-0.2185821533203125
-0.2159271240234375
-0.2120361328125
-0.209564208984375
-0.2098846435546875
-0.20892333984375
-0.207733154296875
-0.20672607421875
-0.2032012939453125
-0.2000885009765625
-0.1967926025390625
-0.1896514892578125
-0.18328857421875
-0.1799468994140625
-0.1780242919921875
-0.18145751953125
-0.18804931640625
-0.194183349609375
-0.19061279296875
-0.1840667724609375
-0.1780242919921875
-0.1743621826171875
-0.1746368408203125
-0.17523193359375
-0.1746826171875
-0.1736297607421875
-0.1741790771484375
-0.1699676513671875
-0.1679534912109375
-0.1611785888671875
-0.15399169921875
-0.150787353515625
-0.1482696533203125
-0.14520263671875
-0.1424560546875
-0.1414947509765625
-0.1426849365234375
-0.1425018310546875
-0.139984130859375
-0.1414031982421875
-0.1457061767578125
-0.1483612060546875
-0.1488189697265625
-0.1506500244140625
-0.151885986328125
-0.1472625732421875
-0.146026611328125
-0.14630126953125
-0.145660400390625
-0.14117431640625
-0.1366424560546875
-0.1326141357421875
-0.1309661865234375
-0.1306915283203125
-0.1307830810546875
-0.1317901611328125
-0.1341705322265625
-0.1344451904296875
-0.1380157470703125
-0.14447021484375
-0.1508331298828125
-0.1577911376953125
-0.16387939453125
-0.167449951171875
-0.16021728515625
-0.15179443359375
-0.1465301513671875
-0.1454315185546875
-0.1417694091796875
-0.1399383544921875
-0.1408538818359375
-0.1447906494140625
-0.1462554931640625
-0.147216796875
-0.1508331298828125
-0.1581573486328125
-0.1652984619140625
-0.1696014404296875
-0.16864013671875
-0.1633758544921875
-0.1605377197265625
-0.1611328125
-0.1642913818359375
-0.1684112548828125
-0.1720733642578125
-0.17193603515625
-0.1663970947265625
-0.1555023193359375
-0.148590087890625
-0.1429595947265625
-0.1424102783203125
-0.1514739990234375
-0.1636505126953125
-0.1710662841796875
-0.1728973388671875
-0.1734466552734375
-0.1669464111328125
-0.16241455078125
-0.1622772216796875
-0.1602630615234375
-0.1543121337890625
-0.1501922607421875
-0.1476287841796875
-0.1490478515625
-0.1534881591796875
-0.154266357421875
-0.1509246826171875
-0.1436004638671875
-0.1374664306640625
-0.1352691650390625
-0.131744384765625
-0.1262969970703125
-0.1080780029296875
-0.08203125
-0.05987548828125
-0.0502166748046875
-0.0505828857421875
-0.0571746826171875
-0.06298828125
-0.06903076171875
-0.0713653564453125
-0.0709075927734375
-0.06829833984375
-0.06198120117187501
-0.0504913330078125
-0.0341033935546875
-0.0142364501953125
-0.001556396484375
0.0104827880859375
0.02362060546875
0.0346527099609375
0.0383148193359375
0.038726806640625
0.04083251953125
0.0435333251953125
0.043487548828125
0.0417022705078125
0.0384063720703125
0.0370330810546875
0.0383148193359375
0.03753662109375
0.0375823974609375
0.0410614013671875
0.0468292236328125
0.0482940673828125
0.0471038818359375
0.046966552734375
0.0472869873046875
0.04779052734375
0.043304443359375
0.0386810302734375
0.0314483642578125
0.0289764404296875
0.03277587890625
0.03643798828125
0.0347442626953125
0.036529541015625
0.0370330810546875
0.0356597900390625
0.031219482421874997
0.0287017822265625
0.0296173095703125
0.0289306640625
0.0265960693359375
0.0289764404296875
0.0308990478515625
0.0320892333984375
0.0326385498046875
0.0332794189453125
0.0339202880859375
0.03497314453125
0.0326385498046875
0.0237579345703125
0.0183563232421875
0.01959228515625
0.020599365234375
0.019134521484375
0.014373779296875
0.011627197265625
0.0073699951171875
0.00457763671875
0.0051727294921875
0.00970458984375
0.0177154541015625
0.0227508544921875
0.02508544921875
0.02471923828125
0.0215606689453125
0.01776123046875
0.01629638671875
0.016754150390625
0.0196380615234375
0.0240325927734375
0.022430419921875
0.0186309814453125
0.015609741210937498
0.0131378173828125
0.0085601806640625
0.0038909912109375
0.0021514892578125
0.0018768310546875
0.0016021728515625
0.0016021728515625
-0.003570556640625
-0.0079193115234375
-0.0103912353515625
-0.0100250244140625
-0.0094757080078125
-0.0025177001953125
0.0058135986328125
0.01080322265625
0.0123138427734375
0.0123138427734375
0.0139617919921875
0.0119476318359375
0.0096588134765625
0.0069122314453125
0.0060882568359375
0.00457763671875
0.0014190673828125
0.0018768310546875
0.0027923583984375
0.0016021728515625
0.0033416748046875
0.0094757080078125
0.01629638671875
0.0222015380859375
0.02362060546875
0.0271453857421875
0.0318145751953125
0.0334625244140625
0.0339202880859375
0.0329132080078125
0.0329132080078125
0.0310821533203125
0.0294342041015625
0.0308990478515625
0.0322723388671875
0.0330047607421875
0.030624389648437503
0.0285186767578125
0.0280609130859375
0.0313568115234375
0.0347442626953125
0.0359344482421875
0.0340118408203125
0.031173706054687503
0.03057861328125
0.0298919677734375
0.0236663818359375
0.0220184326171875
0.0276947021484375
0.030624389648437503
0.0298004150390625
0.030807495117187503
0.0339202880859375
0.0374908447265625
0.038726806640625
0.0348358154296875
0.0322723388671875
0.035247802734375
0.0427093505859375
0.0428009033203125
0.0380401611328125
0.03240966796875
0.0275115966796875
0.0292510986328125
0.0285186767578125
0.027923583984375
0.02947998046875
0.0327301025390625
0.036346435546875
0.0376739501953125
0.03570556640625
0.03314208984375
0.0317230224609375
0.0314483642578125
0.03350830078125
0.0373077392578125
0.0413360595703125
0.04193115234375
0.0427093505859375
0.045684814453125
0.04376220703125
0.0391387939453125
0.0325927734375
0.02838134765625
0.0290679931640625
0.0300750732421875
0.030990600585937503
0.0293426513671875
0.0269622802734375
0.0285186767578125
0.0278778076171875
0.0255889892578125
0.0254974365234375
0.0300750732421875
0.0333709716796875
0.0335540771484375
0.0346527099609375
0.0340118408203125
0.0335540771484375
0.031173706054687503
0.0287017822265625
0.02764892578125
0.0255889892578125
0.02362060546875
0.02398681640625
0.02252197265625
0.0216522216796875
0.023895263671875
0.027008056640625
0.0293426513671875
0.0340118408203125
0.0434417724609375
0.0544281005859375
0.0662384033203125
0.0729217529296875
0.0754852294921875
0.0789642333984375
0.083770751953125
0.09027099609375
0.0946197509765625
0.0936126708984375
0.0875244140625
0.0821685791015625
0.084320068359375
0.09173583984375
0.1006622314453125
0.1078033447265625
0.114990234375
0.1211700439453125
0.1284027099609375
0.1379241943359375
0.1478118896484375
0.1560516357421875
0.161224365234375
0.1645660400390625
0.1651153564453125
0.1631927490234375
0.1641082763671875
0.1645660400390625
0.1693267822265625
0.1758270263671875
0.179168701171875
0.1782073974609375
0.1734466552734375
0.1709747314453125
0.1703338623046875
0.1695098876953125
0.1674041748046875
0.1621856689453125
0.1547698974609375
0.1428680419921875
0.1320648193359375
0.1243743896484375
0.1201629638671875
0.1153106689453125
0.1118316650390625
0.10675048828125
0.0981903076171875
0.0887603759765625
0.08038330078125
0.0703582763671875
0.0645904541015625
0.0641326904296875
0.0612030029296875
0.0549774169921875
0.0482025146484375
0.0420684814453125
0.0353851318359375
0.0280609130859375
0.0239410400390625
0.02252197265625
0.02252197265625
0.0197296142578125
0.0165252685546875
0.0152435302734375
0.01556396484375
0.0113983154296875
0.0058135986328125
0.0001373291015625
-0.0036163330078125
-0.0035247802734375
-0.000457763671875
0.0006866455078125
0.0002288818359375
0.0031585693359375
0.0026092529296875
-0.00128173828125
-0.0045318603515625
-0.00714111328125
-0.0072784423828125
-0.0034332275390625
-0.0004119873046875
0.0016021728515625
0.0039825439453125
0.00750732421875
0.0081024169921875
0.0061798095703125
0.0021514892578125
-0.0016021728515625
-0.0016021728515625
0.0059967041015625
0.0163421630859375
0.0182647705078125
0.02032470703125
0.0397796630859375
0.07269287109375
0.1133880615234375
0.1548614501953125
0.1868133544921875
0.2247161865234375
0.2607879638671875
0.2854156494140625
0.29388427734375
0.2861480712890625
0.2815704345703125
0.2926483154296875
0.3038177490234375
0.3239593505859375
0.35028076171875
0.3771514892578125
0.41162109375
0.4859161376953125
0.5944061279296875
0.6956634521484375
0.71502685546875
0.6375274658203125
0.5458831787109375
0.4535980224609375
0.3746795654296875
0.32977294921875
0.355316162109375
0.4188995361328125
0.4680633544921875
0.4737396240234375
0.4418792724609375
0.38397216796875
0.32354736328125
0.26751708984375
0.2222442626953125
0.1986236572265625
0.1915740966796875
0.1833343505859375
0.1632843017578125
0.1295928955078125
0.083587646484375
0.0386810302734375
0.0032501220703125
-0.0194549560546875
-0.036346435546875
-0.0542449951171875
-0.06829833984375
-0.0819854736328125
-0.0985565185546875
-0.110687255859375
-0.1161346435546875
-0.12249755859375001
-0.1296844482421875
-0.138702392578125
-0.142181396484375
-0.14190673828125
-0.1445159912109375
-0.1494598388671875
-0.153167724609375
-0.1558685302734375
-0.1531219482421875
-0.1495513916015625
-0.146209716796875
-0.14483642578125
-0.145843505859375
-0.154083251953125
-0.1575164794921875
-0.1565093994140625
-0.157012939453125
-0.1609039306640625
-0.1643829345703125
-0.16204833984375
-0.1647491455078125
-0.1707000732421875
-0.1681365966796875
-0.161773681640625
-0.15655517578125
-0.1524810791015625
-0.1479034423828125
-0.1466217041015625
-0.1497344970703125
-0.14776611328125
-0.14447021484375
-0.1411285400390625
-0.1401214599609375
-0.1414031982421875
-0.1404876708984375
-0.1395721435546875
-0.1394805908203125
-0.1416778564453125
-0.1396636962890625
-0.1340789794921875
-0.1312408447265625
-0.1338958740234375
-0.1397552490234375
-0.1447906494140625
-0.14080810546875
-0.1301422119140625
-0.12345886230468749
-0.1202545166015625
-0.1173248291015625
-0.1173248291015625
-0.118011474609375
-0.116729736328125
-0.115264892578125
-0.114898681640625
-0.1150360107421875
-0.113983154296875
-0.111785888671875
-0.1086273193359375
-0.1062469482421875
-0.1050567626953125
-0.1020355224609375
-0.1013946533203125
-0.100250244140625
-0.100616455078125
-0.1028594970703125
-0.1033172607421875
-0.1050567626953125
-0.1032257080078125
-0.09832763671875
-0.094757080078125
-0.0937957763671875
-0.0968170166015625
-0.0978240966796875
-0.098968505859375
-0.10107421875
-0.1037750244140625
-0.10693359375
-0.1068878173828125
-0.1059722900390625
-0.1072540283203125
-0.1071624755859375
-0.1072540283203125
-0.1099090576171875
-0.11041259765625
-0.1099090576171875
-0.1133880615234375
-0.1148529052734375
-0.1138458251953125
-0.1132965087890625
-0.1139373779296875
-0.1161346435546875
-0.119659423828125
-0.12030029296875
-0.1202545166015625
-0.1209869384765625
-0.1251068115234375
-0.1311492919921875
-0.1358184814453125
-0.1387481689453125
-0.141632080078125
-0.14483642578125
-0.1458892822265625
-0.1447906494140625
-0.1405792236328125
-0.1380157470703125
-0.1386566162109375
-0.1405792236328125
-0.14447021484375
-0.148956298828125
-0.1523895263671875
-0.155181884765625
-0.15673828125
-0.1557769775390625
-0.1559600830078125
-0.1546783447265625
-0.1522979736328125
-0.15069580078125
-0.1516571044921875
-0.1566925048828125
-0.159393310546875
-0.156005859375
-0.1533050537109375
-0.151885986328125
-0.1486358642578125
-0.1450653076171875
-0.1405792236328125
-0.13714599609375
-0.1375579833984375
-0.1429595947265625
-0.1501922607421875
-0.1519317626953125
-0.1461639404296875
-0.1355438232421875
-0.12409973144531249
-0.1154022216796875
-0.1068878173828125
-0.0989227294921875
-0.091278076171875
-0.0893096923828125
-0.0876617431640625
-0.0823516845703125
-0.078277587890625
-0.0759429931640625
-0.0695343017578125
-0.0552520751953125
-0.0422515869140625
-0.03387451171875
-0.0279693603515625
-0.02325439453125
-0.0186309814453125
-0.0110321044921875
-0.0016021728515625
0.009246826171875
0.0166168212890625
0.0208282470703125
0.0267791748046875
0.0330047607421875
0.0401458740234375
0.0442657470703125
0.0494842529296875
0.0532379150390625
0.0536041259765625
0.0519561767578125
0.05255126953125
0.0530548095703125
0.053924560546875
0.0534210205078125
0.0486602783203125
0.047698974609375
0.0507659912109375
0.0563507080078125
0.0623016357421875
0.06573486328125
0.0622100830078125
0.0589141845703125
0.0588226318359375
0.0631256103515625
0.0676116943359375
0.0652313232421875
0.0585479736328125
0.0570831298828125
0.06175231933593749
0.0632171630859375
0.05914306640625
0.0496673583984375
0.040740966796875
0.034515380859375
0.0341033935546875
0.0393218994140625
0.0420684814453125
0.0429840087890625
0.0419769287109375
0.03387451171875
0.02618408203125
0.02288818359375
0.02581787109375
0.0287933349609375
0.030807495117187503
0.030807495117187503
0.02984619140625
0.0294342041015625
0.028656005859375
0.0260467529296875
0.023895263671875
0.0233917236328125
0.0222015380859375
0.0171661376953125
0.0124969482421875
0.0086517333984375
0.00494384765625
0.0049896240234375
0.0047149658203125
0.0029754638671875
-0.0027923583984375
-0.007049560546875
-0.0098419189453125
-0.0135040283203125
-0.01776123046875
-0.0213775634765625
-0.0192718505859375
-0.0187225341796875
-0.02032470703125
-0.0177154541015625
-0.0167083740234375
-0.0165252685546875
-0.015609741210937498
-0.0108489990234375
-0.0064544677734375
-0.0027008056640625
-0.0037078857421875
-0.00677490234375
-0.0131378173828125
-0.0177154541015625
-0.0202789306640625
-0.0214691162109375
-0.0212860107421875
-0.0232086181640625
-0.0265960693359375
-0.0314483642578125
-0.0330963134765625
-0.0316314697265625
-0.0301666259765625
-0.0302581787109375
-0.0286102294921875
-0.02197265625
-0.01922607421875
-0.0189971923828125
-0.0158843994140625
-0.0142822265625
-0.0116729736328125
-0.0126800537109375
-0.018218994140625
-0.0219268798828125
-0.0266876220703125
-0.0304412841796875
-0.0296173095703125
-0.0251312255859375
-0.0211029052734375
-0.02288818359375
-0.0243988037109375
-0.0238494873046875
-0.0217437744140625
-0.0223846435546875
-0.0257720947265625
-0.031585693359375
-0.0345611572265625
-0.0363922119140625
-0.0364837646484375
-0.0368499755859375
-0.03570556640625
-0.0363922119140625
-0.0380401611328125
-0.0362091064453125
-0.0327301025390625
-0.0246734619140625
-0.01812744140625
-0.0187225341796875
-0.0216522216796875
-0.0238037109375
-0.0231170654296875
-0.0236663818359375
-0.0242156982421875
-0.02655029296875
-0.0326385498046875
-0.0368499755859375
-0.0388641357421875
-0.0431671142578125
-0.046417236328125
-0.04779052734375
-0.0523223876953125
-0.0548858642578125
-0.0556182861328125
-0.0556182861328125
-0.054840087890625
-0.0524139404296875
-0.04742431640625
-0.0447235107421875
-0.0464630126953125
-0.0530548095703125
-0.0547943115234375
-0.04925537109375
-0.03936767578125
-0.0326385498046875
-0.02874755859375
-0.0288848876953125
-0.0293426513671875
-0.0298919677734375
-0.032501220703125
-0.0367584228515625
-0.0391387939453125
-0.0384063720703125
-0.0380401611328125
-0.0428009033203125
-0.0437164306640625
-0.0404205322265625
-0.03826904296875
-0.0352020263671875
-0.032867431640625
-0.0298919677734375
-0.0267791748046875
-0.0237579345703125
-0.0228424072265625
-0.01959228515625
-0.0123138427734375
-0.004302978515625
0.0019683837890625
0.0067291259765625
0.0113067626953125
0.0146026611328125
0.0208740234375
0.027740478515625
0.03607177734375
0.041290283203125
0.0415191650390625
0.0412445068359375
0.0453643798828125
0.05584716796875
0.068206787109375
0.073883056640625
0.0735626220703125
0.074432373046875
0.080841064453125
0.0945281982421875
0.1004791259765625
0.1015777587890625
0.1002044677734375
0.0971832275390625
0.0911407470703125
0.0806121826171875
0.0730133056640625
0.0691680908203125
0.0661468505859375
0.0612030029296875
0.05126953125
0.043487548828125
0.035614013671875
0.0286102294921875
0.0233917236328125
0.0200042724609375
0.01483154296875
0.0070037841796875
-0.0010528564453125
-0.0040283203125
-0.0065460205078125
-0.0104827880859375
-0.0125885009765625
-0.0188140869140625
-0.026824951171875
-0.0363922119140625
-0.0425262451171875
-0.0461883544921875
-0.0483856201171875
-0.0492095947265625
-0.05145263671875
-0.05511474609375
-0.0549774169921875
-0.0592803955078125
-0.068023681640625
-0.0758514404296875
-0.0822601318359375
-0.087615966796875
-0.0869293212890625
-0.0809783935546875
-0.0774993896484375
-0.0779571533203125
-0.0761260986328125
-0.0695343017578125
-0.0640411376953125
-0.0597381591796875
-0.0584564208984375
-0.0596466064453125
-0.0559844970703125
-0.0562591552734375
-0.0570831298828125
-0.0514068603515625
-0.0460968017578125
-0.0483856201171875
-0.0496673583984375
-0.045318603515625
-0.0440826416015625
-0.0433502197265625
-0.0470123291015625
-0.0541534423828125
-0.059234619140625
-0.05841064453125
-0.0564422607421875
-0.04888916015625
-0.028839111328125
-0.0018768310546875
0.0280609130859375
0.0592803955078125
0.0966339111328125
0.1376495361328125
0.1840667724609375
0.2171173095703125
0.2316741943359375
0.2360687255859375
0.2321319580078125
0.2329559326171875
0.23089599609375
0.2314453125
0.2404632568359375
0.268798828125
0.3016204833984375
0.3430938720703125
0.4162445068359375
0.49676513671874994
0.49873352050781256
0.3978424072265625
0.2757110595703125
0.1625518798828125
0.0699005126953125
0.0160675048828125
0.0240325927734375
0.08221435546875
0.1588897705078125
0.2159271240234375
0.2380828857421875
0.2317657470703125
0.22650146484375
0.21954345703125
0.2075042724609375
0.2068634033203125
0.2146453857421875
0.2131805419921875
0.1950531005859375
0.1650238037109375
0.1259307861328125
0.0838623046875
0.0321807861328125
-0.0158843994140625
-0.04925537109375
-0.07781982421875
-0.0907745361328125
-0.0942535400390625
-0.0950775146484375
-0.0997467041015625
-0.1072540283203125
-0.1184234619140625
-0.1275787353515625
-0.1349029541015625
-0.1403045654296875
-0.1436004638671875
-0.1463470458984375
-0.1524810791015625
-0.1541290283203125
-0.1501922607421875
-0.1482696533203125
-0.151153564453125
-0.1513824462890625
-0.1480865478515625
-0.1468963623046875
-0.1449737548828125
-0.14593505859375
-0.14886474609375
-0.1539459228515625
-0.1583404541015625
-0.1577911376953125
-0.1598052978515625
-0.161041259765625
-0.163970947265625
-0.1666717529296875
-0.1655731201171875
-0.1617279052734375
-0.1631927490234375
-0.161956787109375
-0.1587066650390625
-0.151885986328125
-0.1424102783203125
-0.1363677978515625
-0.1373291015625
-0.1355438232421875
-0.1286773681640625
-0.1219940185546875
-0.1158599853515625
-0.1131134033203125
-0.11444091796875
-0.1162261962890625
-0.1206207275390625
-0.1257476806640625
-0.1296844482421875
-0.1281280517578125
-0.128448486328125
-0.1258392333984375
-0.116912841796875
-0.1115570068359375
-0.109771728515625
-0.1077117919921875
-0.10638427734375
-0.1072540283203125
-0.1030426025390625
-0.1011199951171875
-0.0989227294921875
-0.0986480712890625
-0.10052490234375
-0.0952606201171875
-0.0948028564453125
-0.1018524169921875
-0.1045074462890625
-0.1062469482421875
-0.1046905517578125
-0.1056976318359375
-0.1012115478515625
-0.0913238525390625
-0.080474853515625
-0.0746612548828125
-0.0751190185546875
-0.0755767822265625
-0.078460693359375
-0.0794219970703125
-0.0779571533203125
-0.0764007568359375
-0.0777740478515625
-0.0801544189453125
-0.0805206298828125
-0.0811614990234375
-0.081756591796875
-0.0816650390625
-0.0823516845703125
-0.0839996337890625
-0.08331298828125
-0.0834503173828125
-0.0850067138671875
-0.0854644775390625
-0.0827178955078125
-0.0806121826171875
-0.0820770263671875
-0.0800628662109375
-0.07708740234375
-0.0807037353515625
-0.0882110595703125
-0.0880279541015625
-0.08880615234375
-0.0917816162109375
-0.0928802490234375
-0.0967254638671875
-0.0998382568359375
-0.0993804931640625
-0.0977325439453125
-0.094940185546875
-0.095672607421875
-0.096221923828125
-0.0971832275390625
-0.099151611328125
-0.1030426025390625
-0.1013031005859375
-0.0938873291015625
-0.0853729248046875
-0.0814361572265625
-0.0814361572265625
-0.0836334228515625
-0.0894012451171875
-0.0959014892578125
-0.093017578125
-0.0883026123046875
-0.0839996337890625
-0.0825347900390625
-0.08221435546875
-0.0783233642578125
-0.074798583984375
-0.0682525634765625
-0.0596466064453125
-0.0586395263671875
-0.05657958984375
-0.0542449951171875
-0.050811767578125
-0.04888916015625
-0.0489349365234375
-0.04595947265625
-0.0428466796875
-0.0454559326171875
-0.0432586669921875
-0.0324554443359375
-0.0292510986328125
-0.0274658203125
-0.0222015380859375
-0.0187225341796875
-0.010528564453125
0.0031585693359375
0.0092010498046875
0.01043701171875
0.0084686279296875
0.0104827880859375
0.0122222900390625
0.01171875
0.01153564453125
0.012908935546875
0.0211944580078125
0.0322723388671875
0.04376220703125
0.05438232421875
0.0607452392578125
0.0630340576171875
0.07196044921875
0.0735626220703125
0.0720977783203125
0.0723724365234375
0.0753021240234375
0.0764923095703125
0.0739288330078125
0.071319580078125
0.07305908203125
0.07708740234375
0.0836334228515625
0.0867462158203125
0.0841827392578125
0.0808868408203125
0.0837249755859375
0.0822601318359375
0.0866546630859375
0.0871124267578125
0.09246826171875
0.0895843505859375
0.0843658447265625
0.0793304443359375
0.0772247314453125
0.0778656005859375
0.0770416259765625
0.073333740234375
0.0754852294921875
0.0807952880859375
0.0837249755859375
0.0841827392578125
0.0828094482421875
0.08038330078125
0.0782318115234375
0.0783233642578125
0.0743408203125
0.0677947998046875
0.0614776611328125
0.0580902099609375
0.0588226318359375
0.0608367919921875
0.0631256103515625
0.0672454833984375
0.0673828125
0.0677947998046875
0.0647735595703125
0.06353759765625
0.0614776611328125
0.061431884765625
0.0637664794921875
0.06610107421875
0.0635833740234375
0.05511474609375
0.0489349365234375
0.047515869140625
0.0547027587890625
0.0576324462890625
0.0545196533203125
0.0482940673828125
0.0445404052734375
0.0383148193359375
0.0368499755859375
0.0368499755859375
0.0435333251953125
0.0511322021484375
0.0544281005859375
0.0520477294921875
0.0514984130859375
0.0496673583984375
0.04156494140625
0.0379486083984375
0.0412445068359375
0.0444488525390625
0.0465087890625
0.0459136962890625
0.0506744384765625
0.0524139404296875
0.0498504638671875
0.044769287109375
0.0460968017578125
0.0451812744140625
0.04486083984375
0.0427093505859375
0.04156494140625
0.0375823974609375
0.03643798828125
0.0382232666015625
0.03973388671875
0.04010009765625
0.0432586669921875
0.046966552734375
0.0461883544921875
0.0442657470703125
0.0434417724609375
0.0403289794921875
0.04595947265625
0.0584564208984375
0.06646728515625
0.0665130615234375
0.058135986328125
0.0461883544921875
0.0373077392578125
0.0372161865234375
0.0408782958984375
0.0434417724609375
0.04632568359375
0.0493927001953125
0.0460968017578125
0.04449462890625
0.04412841796875
0.0373077392578125
0.032135009765625
0.0314483642578125
0.032684326171875
0.0363006591796875
0.0402374267578125
0.04302978515625
0.044769287109375
0.050811767578125
0.05291748046875
0.0530548095703125
0.0532379150390625
0.0524139404296875
0.0564422607421875
0.0578155517578125
0.058319091796875
0.05548095703125
0.0479278564453125
0.04156494140625
0.0422515869140625
0.0430755615234375
0.04925537109375
0.0555267333984375
0.0581817626953125
0.0575408935546875
0.0560760498046875
0.0536956787109375
0.0482940673828125
0.03424072265625
0.02545166015625
0.0205535888671875
0.0189056396484375
0.0237579345703125
0.0304412841796875
0.03387451171875
0.0394134521484375
0.0441741943359375
0.0489349365234375
0.0542449951171875
0.06024169921875
0.0640411376953125
0.0661468505859375
0.0668792724609375
0.0644989013671875
0.0638580322265625
0.0641326904296875
0.0655059814453125
0.0633544921875
0.06463623046875
0.0688018798828125
0.0758514404296875
0.0840911865234375
0.09283447265625
0.0970916748046875
0.1013946533203125
0.1097259521484375
0.120574951171875
0.1335296630859375
0.1390228271484375
0.1394805908203125
0.14373779296875
0.1522064208984375
0.1599884033203125
0.1593475341796875
0.15545654296875
0.1586151123046875
0.1636505126953125
0.1678619384765625
0.1703338623046875
0.16717529296875
0.1642913818359375
0.159942626953125
0.1561431884765625
0.1482696533203125
0.1395721435546875
0.134307861328125
0.1287689208984375
0.1288604736328125
0.1331634521484375
0.1277618408203125
0.1100921630859375
0.0903167724609375
0.0744781494140625
0.0593719482421875
0.0476531982421875
0.04046630859375
0.0427093505859375
0.0464630126953125
0.0419769287109375
0.0355682373046875
0.030807495117187503
0.0264129638671875
0.0233001708984375
0.0207366943359375
0.0135955810546875
0.0065460205078125
-0.0004119873046875
-0.0050811767578125
-0.0095672607421875
-0.0107574462890625
-0.0088348388671875
-0.0105743408203125
-0.0180816650390625
-0.0226593017578125
-0.0248565673828125
-0.0272369384765625
-0.0230255126953125
-0.0136871337890625
-0.0073699951171875
-0.0056304931640625
-0.005950927734375
-0.005401611328125
-0.0095672607421875
-0.0117645263671875
-0.0051727294921875
0.0036163330078125
0.0056304931640625
0.0058135986328125
0.0058135986328125
0.00750732421875
0.0046234130859375
0.00201416015625
0.0026092529296875
0.0004119873046875
-0.0082855224609375
-0.0174407958984375
-0.0226593017578125
-0.0287017822265625
-0.0331878662109375
-0.0329132080078125
-0.0150604248046875
0.0100250244140625
0.0416107177734375
0.08917236328125
0.1358184814453125
0.1757354736328125
0.2151031494140625
0.2434844970703125
0.2628936767578125
0.271270751953125
0.2844085693359375
0.2952117919921875
0.2974090576171875
0.3105926513671875
0.3416748046875
0.3787994384765625
0.4138641357421875
0.4701690673828125
0.5412139892578125
0.55352783203125
0.4370269775390625
0.2783660888671875
0.1476287841796875
0.049530029296875
0.0008697509765625
0.0150604248046875
0.0676116943359375
0.1185150146484375
0.1571502685546875
0.1761932373046875
0.1907501220703125
0.2057647705078125
0.21258544921875
0.2131805419921875
0.2250823974609375
0.2471466064453125
0.2529144287109375
0.2398223876953125
0.2197723388671875
0.1888275146484375
0.1451568603515625
0.0894012451171875
0.0251312255859375
-0.0369415283203125
-0.07672119140625
-0.0926971435546875
-0.0969085693359375
-0.0875701904296875
-0.075897216796875
-0.0693511962890625
-0.0715484619140625
-0.0773162841796875
-0.081207275390625
-0.0888519287109375
-0.1021270751953125
-0.1204376220703125
-0.1316070556640625
-0.1352691650390625
-0.1359100341796875
-0.1345367431640625
-0.1381072998046875
-0.1376495361328125
-0.1293182373046875
-0.122222900390625
-0.1182403564453125
-0.1205291748046875
-0.12345886230468749
-0.12355041503906249
-0.1259307861328125
-0.1265716552734375
-0.1287689208984375
-0.1297760009765625
-0.12835693359375
-0.1271209716796875
-0.1301422119140625
-0.1335296630859375
-0.132293701171875
-0.1256561279296875
-0.1179656982421875
-0.1154022216796875
-0.1138916015625
-0.10784912109375
-0.106475830078125
-0.10235595703125
-0.1000213623046875
-0.1057891845703125
-0.1176910400390625
-0.12139892578125
-0.1173248291015625
-0.1106414794921875
-0.1061553955078125
-0.1025848388671875
-0.1034088134765625
-0.1020355224609375
-0.1014862060546875
-0.09613037109375
-0.098785400390625
-0.09869384765625
-0.0966339111328125
-0.0984649658203125
-0.1001129150390625
-0.1000213623046875
-0.0985565185546875
-0.0926055908203125
-0.08734130859375
-0.0840911865234375
-0.0780487060546875
-0.07598876953125
-0.0768585205078125
-0.0781402587890625
-0.07965087890625
-0.07928466796875
-0.076812744140625
-0.0753936767578125
-0.0742950439453125
-0.0707244873046875
-0.06829833984375
-0.0669708251953125
-0.0601959228515625
-0.050994873046875
-0.0495758056640625
-0.0535125732421875
-0.0548858642578125
-0.05694580078125
-0.0579986572265625
-0.0612030029296875
-0.0676116943359375
-0.0665130615234375
-0.0604705810546875
-0.0557098388671875
-0.0510406494140625
-0.0523223876953125
-0.0554351806640625
-0.0514984130859375
-0.0493011474609375
-0.0503082275390625
-0.0504913330078125
-0.0528717041015625
-0.0582733154296875
-0.06500244140625
-0.0696258544921875
-0.0717315673828125
-0.0717315673828125
-0.068023681640625
-0.0644073486328125
-0.0696258544921875
-0.0720977783203125
-0.0696258544921875
-0.0686187744140625
-0.0684814453125
-0.0719146728515625
-0.07672119140625
-0.0772247314453125
-0.0715484619140625
-0.0652313232421875
-0.0656890869140625
-0.0669708251953125
-0.0697174072265625
-0.0713653564453125
-0.0711822509765625
-0.07452392578125
-0.08074951171875
-0.0794219970703125
-0.0803375244140625
-0.0762176513671875
-0.07159423828125
-0.0647735595703125
-0.0599212646484375
-0.0580902099609375
-0.0585479736328125
-0.0579986572265625
-0.05621337890625
-0.0544281005859375
-0.0548858642578125
-0.0535125732421875
-0.0497589111328125
-0.0482940673828125
-0.0428009033203125
-0.0362091064453125
-0.0319976806640625
-0.0245361328125
-0.01519775390625
-0.0096588134765625
-0.0082855224609375
-0.0050811767578125
0.0022430419921875
0.01043701171875
0.01959228515625
0.02655029296875
0.02581787109375
0.0222930908203125
0.02142333984375
0.0211029052734375
0.0218353271484375
0.0255889892578125
0.02655029296875
0.0276031494140625
0.0331878662109375
0.0422515869140625
0.0499420166015625
0.056854248046875
0.056854248046875
0.06097412109375
0.0632171630859375
0.06248474121093749
0.0681610107421875
0.072601318359375
0.071502685546875
0.06866455078125
0.0725555419921875
0.076812744140625
0.0837249755859375
0.0888519287109375
0.09686279296875
0.0954437255859375
0.0898590087890625
0.0912322998046875
0.0932464599609375
0.090179443359375
0.0865631103515625
0.0839080810546875
0.0775909423828125
0.0721893310546875
0.0702667236328125
0.0703582763671875
0.07159423828125
0.073150634765625
0.0745697021484375
0.07562255859375
0.0757598876953125
0.0767669677734375
0.0806121826171875
0.0831756591796875
0.0897674560546875
0.0911865234375
0.0904083251953125
0.0844573974609375
0.0747528076171875
0.0674285888671875
0.06129455566406251
0.0570831298828125
0.0574493408203125
0.0623016357421875
0.06536865234375
0.06427001953125
0.0619354248046875
0.0629425048828125
0.061065673828125
0.0566253662109375
0.0506744384765625
0.0384063720703125
0.0322723388671875
0.03057861328125
0.03057861328125
0.0326385498046875
0.0367584228515625
0.0381317138671875
0.0406036376953125
0.0417022705078125
0.036895751953125
0.0369415283203125
0.040740966796875
0.04193115234375
0.0394134521484375
0.0380401611328125
0.03570556640625
0.0354766845703125
0.03570556640625
0.0381317138671875
0.0431671142578125
0.0465545654296875
0.0486602783203125
0.0523223876953125
0.0554351806640625
0.0569915771484375
0.0596466064453125
0.0561676025390625
0.0526885986328125
0.0517730712890625
0.0497589111328125
0.0455474853515625
0.0358428955078125
0.0265960693359375
0.0251312255859375
0.0276031494140625
0.0287933349609375
0.0303955078125
0.034149169921875
0.0342864990234375
0.0315399169921875
0.029388427734375
0.0280609130859375
0.028656005859375
0.0271453857421875
0.0218353271484375
0.0217437744140625
0.0256805419921875
0.0274200439453125
0.029571533203125
0.0363006591796875
0.03973388671875
0.0399627685546875
0.0391387939453125
0.0419769287109375
0.0449066162109375
0.04925537109375
0.0485687255859375
0.0442657470703125
0.0390472412109375
0.0343780517578125
0.0291595458984375
0.0269622802734375
0.0303497314453125
0.0330047607421875
0.033966064453125
0.0339202880859375
0.033416748046875
0.0287017822265625
0.0240325927734375
0.0222930908203125
0.026824951171875
0.0279693603515625
0.0292510986328125
0.0301666259765625
0.0298919677734375
0.0252227783203125
0.0214691162109375
0.0204620361328125
0.0202789306640625
0.0209197998046875
0.02142333984375
0.0165252685546875
0.0097503662109375
0.0112152099609375
0.0192718505859375
0.0233001708984375
0.0242156982421875
0.0248565673828125
0.0258636474609375
0.0244903564453125
0.0222930908203125
0.019500732421875
0.0166168212890625
0.0175323486328125
0.0168914794921875
0.0131378173828125
0.0042572021484375
0.0003204345703125
-0.0019683837890625
-0.0007781982421875
0.001190185546875
0.00384521484375
0.0055389404296875
0.006866455078125
0.0107574462890625
0.0167999267578125
0.0187225341796875
0.0143280029296875
0.0070037841796875
0.0050811767578125
0.0079193115234375
0.0157012939453125
0.0266876220703125
0.030990600585937503
0.0315399169921875
0.0356597900390625
0.0406036376953125
0.0474700927734375
0.0494842529296875
0.048065185546875
0.0472412109375
0.0529632568359375
0.0577239990234375
0.0581817626953125
0.0579986572265625
0.0559844970703125
0.0548858642578125
0.0575408935546875
0.0644989013671875
0.0747528076171875
0.0837249755859375
0.0930633544921875
0.10968017578125
0.12409973144531249
0.1352691650390625
0.1426849365234375
0.14813232421875
0.1516571044921875
0.152252197265625
0.1521148681640625
0.1525726318359375
0.1541290283203125
0.1515655517578125
0.1517486572265625
0.15179443359375
0.14739990234375
0.1401214599609375
0.1322479248046875
0.1244659423828125
0.1169586181640625
0.1090850830078125
0.1009368896484375
0.0976409912109375
0.0949859619140625
0.0873870849609375
0.0783233642578125
0.0688934326171875
0.0592803955078125
0.050628662109375
0.0435333251953125
0.0425262451171875
0.0420684814453125
0.0439910888671875
0.0456390380859375
0.03790283203125
0.0222015380859375
0.0083770751953125
-0.00128173828125
-0.006866455078125
-0.0085601806640625
-0.0084686279296875
-0.0044403076171875
-0.0041656494140625
-0.0071868896484375
-0.0098419189453125
-0.0114898681640625
-0.0181732177734375
-0.0259552001953125
-0.0291595458984375
-0.0303497314453125
-0.0295257568359375
-0.0284271240234375
-0.0312652587890625
-0.0332794189453125
-0.0331878662109375
-0.033050537109375
-0.0304412841796875
-0.0276031494140625
-0.0276031494140625
-0.0287017822265625
-0.03240966796875
-0.0350189208984375
-0.0334625244140625
-0.03350830078125
-0.0341949462890625
-0.0380859375
-0.043670654296875
-0.049346923828125
-0.0563507080078125
-0.06207275390624999
-0.0594635009765625
-0.0515899658203125
-0.0448150634765625
-0.03497314453125
-0.0184478759765625
0.0062255859375
0.039093017578125
0.07763671875
0.1145782470703125
0.1546783447265625
0.2009124755859375
0.23675537109375
0.2588653564453125
0.2632598876953125
0.26422119140625
0.2732391357421875
0.2825775146484375
0.2950286865234375
0.3157196044921875
0.3543548583984375
0.3944549560546875
0.4441680908203125
0.5235443115234375
0.6077728271484375
0.6068115234375
0.49690246582031244
0.3634185791015625
0.2536468505859375
0.1644744873046875
0.104461669921875
0.0982818603515625
0.1457977294921875
0.20123291015625
0.2299346923828125
0.23236083984375
0.219635009765625
0.1986236572265625
0.1768341064453125
0.1682281494140625
0.1739959716796875
0.1784820556640625
0.17706298828125
0.1617279052734375
0.1361846923828125
0.0979156494140625
0.0568084716796875
0.0105743408203125
-0.0363006591796875
-0.06829833984375
-0.0903167724609375
-0.0991058349609375
-0.0989227294921875
-0.097503662109375
-0.09942626953125
-0.1016693115234375
-0.1089935302734375
-0.1202545166015625
-0.1306915283203125
-0.1383819580078125
-0.1439666748046875
-0.1446990966796875
-0.1457977294921875
-0.1471710205078125
-0.1505584716796875
-0.1555023193359375
-0.1611785888671875
-0.16497802734375
-0.1632843017578125
-0.1606292724609375
-0.1579742431640625
-0.1531219482421875
-0.1463470458984375
-0.1421356201171875
-0.141632080078125
-0.1459808349609375
-0.150054931640625
-0.15032958984375
-0.14996337890625
-0.152069091796875
-0.1535797119140625
-0.1554107666015625
-0.1571502685546875
-0.1596221923828125
-0.16058349609375
-0.1593475341796875
-0.1534881591796875
-0.1473541259765625
-0.1402587890625
-0.1350860595703125
-0.1294097900390625
-0.12474060058593751
-0.1214447021484375
-0.1184234619140625
-0.11517333984375
-0.1154022216796875
-0.1188812255859375
-0.1187896728515625
-0.11865234375
-0.1209869384765625
-0.1230010986328125
-0.1230926513671875
-0.122406005859375
-0.1178741455078125
-0.1137542724609375
-0.1114654541015625
-0.1094512939453125
-0.1072540283203125
-0.1046905517578125
-0.1024017333984375
-0.101165771484375
-0.0999298095703125
-0.09906005859375
-0.0992889404296875
-0.10272216796875
-0.1022186279296875
-0.09942626953125
-0.0950775146484375
-0.09686279296875
-0.0962677001953125
-0.0938873291015625
-0.09063720703125
-0.08917236328125
-0.0864715576171875
-0.0852813720703125
-0.0846405029296875
-0.0807037353515625
-0.0769500732421875
-0.0766754150390625
-0.0781402587890625
-0.0816192626953125
-0.0829010009765625
-0.0815277099609375
-0.0802459716796875
-0.0784149169921875
-0.07598876953125
-0.0775909423828125
-0.0752105712890625
-0.0696258544921875
-0.0666046142578125
-0.0648651123046875
-0.06280517578125
-0.06166076660156251
-0.0599212646484375
-0.0569000244140625
-0.0567169189453125
-0.06138610839843749
-0.0644989013671875
-0.0649566650390625
-0.0637664794921875
-0.0634002685546875
-0.0642242431640625
-0.0660552978515625
-0.0665130615234375
-0.06500244140625
-0.0651397705078125
-0.0666046142578125
-0.0688018798828125
-0.0677947998046875
-0.0641326904296875
-0.0652313232421875
-0.0655059814453125
-0.0652313232421875
-0.0640411376953125
-0.0644989013671875
-0.0690765380859375
-0.0749359130859375
-0.0777740478515625
-0.077545166015625
-0.0794219970703125
-0.0783233642578125
-0.0751190185546875
-0.0711822509765625
-0.0698089599609375
-0.0706329345703125
-0.0693511962890625
-0.0685272216796875
-0.0700836181640625
-0.0710906982421875
-0.07196044921875
-0.0704498291015625
-0.0699920654296875
-0.0696258544921875
-0.0709991455078125
-0.0710906982421875
-0.0696258544921875
-0.0664215087890625
-0.05987548828125
-0.0514068603515625
-0.045318603515625
-0.0384979248046875
-0.0319976806640625
-0.0267791748046875
-0.022796630859375
-0.0135955810546875
-0.0056304931640625
-0.0015106201171875
-0.0012359619140625
-0.0001373291015625
0.0048065185546875
0.009246826171875
0.0128173828125
0.01922607421875
0.02435302734375
0.0277862548828125
0.035797119140625
0.0434417724609375
0.0447235107421875
0.0449981689453125
0.0483856201171875
0.054473876953125
0.06134033203124999
0.06500244140625
0.0686187744140625
0.072235107421875
0.0753021240234375
0.0758514404296875
0.078094482421875
0.0802459716796875
0.0812530517578125
0.0834503173828125
0.08660888671875
0.0892181396484375
0.09210205078125
0.09320068359375
0.08917236328125
0.0862884521484375
0.086334228515625
0.0841827392578125
0.0796051025390625
0.0780487060546875
0.078460693359375
0.0784149169921875
0.0798797607421875
0.0798797607421875
0.0787811279296875
0.072967529296875
0.0669708251953125
0.063629150390625
0.0640411376953125
0.0645904541015625
0.0663299560546875
0.0677032470703125
0.068939208984375
0.0694427490234375
0.0700836181640625
0.0697174072265625
0.0706329345703125
0.068572998046875
0.0694427490234375
0.0710906982421875
0.0713653564453125
0.0717315673828125
0.067291259765625
0.0623016357421875
0.0589141845703125
0.0571746826171875
0.05584716796875
0.0541534423828125
0.0544281005859375
0.0544281005859375
0.0558013916015625
0.0545196533203125
0.0507659912109375
0.0479278564453125
0.0410614013671875
0.03900146484375
0.0363006591796875
0.0380401611328125
0.0405120849609375
0.0431671142578125
0.0436248779296875
0.0453643798828125
0.0498046875
0.0541534423828125
0.0548858642578125
0.05401611328125
0.0503997802734375
0.0417938232421875
0.03826904296875
0.03240966796875
0.0260467529296875
0.0230255126953125
0.02142333984375
0.0211944580078125
0.0263214111328125
0.032318115234375
0.0402374267578125
0.0479278564453125
0.0520477294921875
0.0514984130859375
0.05145263671875
0.0532379150390625
0.0536956787109375
0.0511322021484375
0.0481109619140625
0.0471954345703125
0.04559326171875
0.0405120849609375
0.0333709716796875
0.0313568115234375
0.0295257568359375
0.0303497314453125
0.0328216552734375
0.0361175537109375
0.03826904296875
0.0397796630859375
0.0406036376953125
0.0401458740234375
0.0412445068359375
0.04119873046875
0.0397796630859375
0.0369415283203125
0.03167724609375
0.0280609130859375
0.0283355712890625
0.0285186767578125
0.0300750732421875
0.0324554443359375
0.0339202880859375
0.0363006591796875
0.0384063720703125
0.0391387939453125
0.0373992919921875
0.0319061279296875
0.030303955078125
0.029571533203125
0.0320892333984375
0.030853271484374997
0.02874755859375
0.0276947021484375
0.0233001708984375
0.016937255859375
0.0146942138671875
0.0133209228515625
0.01483154296875
0.01849365234375
0.0196380615234375
0.01446533203125
0.0105743408203125
0.0093841552734375
0.010528564453125
0.01483154296875
0.016204833984375
0.0162506103515625
0.0167999267578125
0.0176239013671875
0.0189971923828125
0.02069091796875
0.0186309814453125
0.0142822265625
0.01190185546875
0.01483154296875
0.0164794921875
0.0170745849609375
0.0137786865234375
0.0107574462890625
0.0076446533203125
0.0031585693359375
-0.00201416015625
-0.0045318603515625
-0.0058135986328125
-0.0059967041015625
-0.0063629150390625
-0.0070953369140625
-0.0001373291015625
0.0057220458984375
0.0137786865234375
0.0215606689453125
0.0252227783203125
0.0277862548828125
0.0283355712890625
0.030624389648437503
0.0366668701171875
0.0420684814453125
0.0433502197265625
0.0397796630859375
0.0373077392578125
0.0388641357421875
0.03790283203125
0.0372161865234375
0.0428009033203125
0.0502166748046875
0.0587310791015625
0.0690765380859375
0.0804290771484375
0.09228515625
0.1049652099609375
0.1175079345703125
0.1287689208984375
0.1377410888671875
0.1424102783203125
0.1450653076171875
0.1462554931640625
0.146484375
0.1481781005859375
0.1494598388671875
0.1474456787109375
0.1405792236328125
0.13055419921875
0.1243743896484375
0.1255645751953125
0.12327575683593751
0.1203460693359375
0.1201629638671875
0.1141204833984375
0.103363037109375
0.0934295654296875
0.0871124267578125
0.0861053466796875
0.0867462158203125
0.0851898193359375
0.0830841064453125
0.0756683349609375
0.066375732421875
0.0569915771484375
0.0497589111328125
0.0435333251953125
0.040008544921875
0.0304412841796875
0.0189056396484375
0.0079193115234375
-0.0024261474609375
-0.010345458984375
-0.01556396484375
-0.0176239013671875
-0.020233154296875
-0.0207366943359375
-0.0192718505859375
-0.015426635742187498
-0.0164337158203125
-0.0234375
-0.0310821533203125
-0.03424072265625
-0.0363922119140625
-0.0398712158203125
-0.0417022705078125
-0.0428924560546875
-0.0433502197265625
-0.0439910888671875
-0.0445404052734375
-0.0433502197265625
-0.0440826416015625
-0.0453643798828125
-0.0462799072265625
-0.0498504638671875
-0.0524139404296875
-0.05108642578125
-0.0502166748046875
-0.0524139404296875
-0.0548858642578125
-0.058502197265625
-0.06166076660156251
-0.0634918212890625
-0.0627593994140625
-0.05914306640625
-0.0510406494140625
-0.0396881103515625
-0.0293426513671875
-0.0172576904296875
0.0025177001953125
0.0324554443359375
0.0720062255859375
0.114990234375
0.1536712646484375
0.1977081298828125
0.24627685546875
0.2892608642578125
0.3078460693359375
0.3142547607421875
0.3347625732421875
0.3710174560546875
0.4113922119140625
0.4527740478515625
0.4920501708984375
0.53448486328125
0.5909271240234375
0.6740570068359375
0.7895965576171875
0.89886474609375
0.89813232421875
0.7977447509765625
0.6757049560546875
0.5625457763671875
0.4660491943359375
0.4091949462890625
0.40264892578125
0.4192657470703125
0.42242431640625
0.3919830322265625
0.3275299072265625
0.2464141845703125
0.162872314453125
0.0842742919921875
0.0349273681640625
0.0135040283203125
0.0161590576171875
0.015609741210937498
0.0060882568359375
-0.0165252685546875
-0.04449462890625
-0.0634918212890625
-0.0765838623046875
-0.0865631103515625
-0.0926055908203125
-0.1025848388671875
-0.1171417236328125
-0.1347198486328125
-0.1479949951171875
-0.1589813232421875
-0.169921875
-0.17724609375
-0.18768310546875
-0.1956939697265625
-0.1985321044921875
-0.2032928466796875
-0.2058563232421875
-0.2062225341796875
-0.21112060546875
-0.2115325927734375
-0.2113037109375
-0.2115325927734375
-0.2100677490234375
-0.2080535888671875
-0.2055816650390625
-0.203338623046875
-0.2011871337890625
-0.2015533447265625
-0.2013702392578125
-0.20196533203125
-0.2018280029296875
-0.2023773193359375
-0.203338623046875
-0.2029266357421875
-0.2000885009765625
-0.2021942138671875
-0.2017364501953125
-0.2010955810546875
-0.1985321044921875
-0.1928558349609375
-0.1881866455078125
-0.1900177001953125
-0.1890106201171875
-0.1880035400390625
-0.1905670166015625
-0.1945953369140625
-0.194915771484375
-0.192718505859375
-0.1918487548828125
-0.1922607421875
-0.1904296875
-0.187042236328125
-0.1821441650390625
-0.17559814453125
-0.1734466552734375
-0.1727142333984375
-0.1728973388671875
-0.1699676513671875
-0.1664886474609375
-0.1668548583984375
-0.167266845703125
-0.1723480224609375
-0.170196533203125
-0.1661224365234375
-0.15985107421875
-0.1552734375
-0.1520233154296875
-0.1509246826171875
-0.1527557373046875
-0.1504669189453125
-0.1479034423828125
-0.1436920166015625
-0.14300537109375
-0.1429595947265625
-0.1427764892578125
-0.1426849365234375
-0.1421356201171875
-0.1417694091796875
-0.135589599609375
-0.1296844482421875
-0.1256561279296875
-0.12263488769531251
-0.12281799316406249
-0.12355041503906249
-0.12506103515625
-0.125701904296875
-0.1289520263671875
-0.134857177734375
-0.136138916015625
-0.132843017578125
-0.1338043212890625
-0.1349945068359375
-0.1370086669921875
-0.1381072998046875
-0.1396636962890625
-0.1424102783203125
-0.14373779296875
-0.1479034423828125
-0.14776611328125
-0.1427764892578125
-0.13751220703125
-0.1349029541015625
-0.13238525390625
-0.1292724609375
-0.12908935546875
-0.12506103515625
-0.1276702880859375
-0.1303253173828125
-0.1318359375
-0.1372833251953125
-0.1431884765625
-0.144378662109375
-0.1473541259765625
-0.1504669189453125
-0.1534881591796875
-0.1547698974609375
-0.1549072265625
-0.1497344970703125
-0.1475372314453125
-0.14776611328125
-0.1475830078125
-0.1489105224609375
-0.149139404296875
-0.1510162353515625
-0.1508331298828125
-0.1536712646484375
-0.15472412109375
-0.1565093994140625
-0.157470703125
-0.1535797119140625
-0.1477203369140625
-0.1421356201171875
-0.1376495361328125
-0.1381988525390625
-0.1384735107421875
-0.1367340087890625
-0.1335296630859375
-0.1301422119140625
-0.122955322265625
-0.12066650390625
-0.1180572509765625
-0.1142120361328125
-0.10784912109375
-0.1077117919921875
-0.10418701171875
-0.0991973876953125
-0.09320068359375
-0.0869293212890625
-0.0843658447265625
-0.0805206298828125
-0.0768585205078125
-0.0697174072265625
-0.063629150390625
-0.0592803955078125
-0.0527801513671875
-0.0450897216796875
-0.0389556884765625
-0.0292510986328125
-0.02105712890625
-0.0198211669921875
-0.017303466796875
-0.0129547119140625
-0.00860595703125
-0.0051727294921875
-0.0001373291015625
0.00732421875
0.0124053955078125
0.0127716064453125
0.0167999267578125
0.0225677490234375
0.0259552001953125
0.0268707275390625
0.0316314697265625
0.0359344482421875
0.0366668701171875
0.0353851318359375
0.0358428955078125
0.0344696044921875
0.0314483642578125
0.0283355712890625
0.0267791748046875
0.0268707275390625
0.0263671875
0.0265045166015625
0.0289764404296875
0.03277587890625
0.036163330078125
0.0364837646484375
0.0372161865234375
0.03936767578125
0.0374908447265625
0.0345611572265625
0.031173706054687503
0.0280609130859375
0.02362060546875
0.0220184326171875
0.0253143310546875
0.0311279296875
0.0320892333984375
0.0266876220703125
0.0185394287109375
0.0113067626953125
0.01025390625
0.0124969482421875
0.0112152099609375
0.0113067626953125
0.01171875
0.0121307373046875
0.0102081298828125
0.0089263916015625
0.0120391845703125
0.0134124755859375
0.01373291015625
0.0141448974609375
0.0146026611328125
0.0171661376953125
0.016387939453125
0.0134124755859375
0.01153564453125
0.011444091796875
0.00897216796875
0.0087432861328125
0.0110321044921875
0.0111236572265625
0.0126800537109375
0.0038909912109375
-0.0005035400390625
0.00274658203125
0.0047149658203125
0.00494384765625
0.0054473876953125
0.0051727294921875
0.0028839111328125
0.0049896240234375
0.0066375732421875
0.0053558349609375
0.0047149658203125
0.00567626953125
0.0062713623046875
0.0056304931640625
0.0043487548828125
0.00567626953125
0.0046234130859375
0.0046234130859375
0.0069580078125
0.0081024169921875
0.007415771484375
0.0073699951171875
0.0060882568359375
0.00384521484375
0.00274658203125
0.0047149658203125
0.0045318603515625
0.0033416748046875
0.0063629150390625
0.0075531005859375
0.0095672607421875
0.0092010498046875
0.00823974609375
0.0093841552734375
0.0091552734375
0.0092010498046875
0.0112152099609375
0.0121307373046875
0.0140533447265625
0.016204833984375
0.01519775390625
0.0137786865234375
0.0127716064453125
0.009613037109375
0.0085601806640625
0.00787353515625
0.006134033203125
0.0086517333984375
0.0135040283203125
0.0168914794921875
0.0179901123046875
0.0186309814453125
0.0211029052734375
0.0258636474609375
0.02471923828125
0.0236663818359375
0.021697998046875
0.0203704833984375
0.0183563232421875
0.01776123046875
0.015609741210937498
0.0101165771484375
0.0062713623046875
0.00311279296875
0.0031585693359375
0.0046234130859375
0.0050811767578125
0.0024261474609375
0.00347900390625
0.0065460205078125
0.0105743408203125
0.0124053955078125
0.0124053955078125
0.01263427734375
0.0101165771484375
0.0098419189453125
0.0101165771484375
0.0046234130859375
0.00457763671875
0.00494384765625
0.0060882568359375
0.0035247802734375
-0.0022430419921875
-0.00494384765625
-0.00567626953125
-0.003936767578125
-0.0001373291015625
0.00164794921875
0.0031585693359375
0.0031585693359375
0.0015106201171875
0.0036163330078125
0.0088348388671875
0.0160675048828125
0.020416259765625
0.019317626953125
0.01666259765625
0.0167999267578125
0.0195465087890625
0.0215606689453125
0.0222015380859375
0.0251312255859375
0.0286102294921875
0.0317230224609375
0.03717041015625
0.04193115234375
0.0459136962890625
0.04925537109375
0.0510406494140625
0.058685302734375
0.0674285888671875
0.0776824951171875
0.0873870849609375
0.09503173828125
0.1037750244140625
0.1117401123046875
0.1192474365234375
0.1277618408203125
0.1309661865234375
0.1326141357421875
0.1330718994140625
0.1336212158203125
0.1335296630859375
0.1316986083984375
0.1289520263671875
0.1272125244140625
0.1215362548828125
0.1142578125
0.1086273193359375
0.1065216064453125
0.1075286865234375
0.1027679443359375
0.09539794921875
0.0878448486328125
0.0804290771484375
0.07415771484375
0.072235107421875
0.0638580322265625
0.054840087890625
0.04669189453125
0.038543701171875
0.0318145751953125
0.02362060546875
0.0165252685546875
0.0086517333984375
0.0058135986328125
0.003662109375
-0.0003204345703125
-0.0078277587890625
-0.0169830322265625
-0.02398681640625
-0.03094482421875
-0.0319976806640625
-0.0303497314453125
-0.030120849609375
-0.031036376953124997
-0.034515380859375
-0.038818359375
-0.0443572998046875
-0.0475616455078125
-0.0482940673828125
-0.0490264892578125
-0.0501251220703125
-0.052093505859375
-0.0516815185546875
-0.0514068603515625
-0.0537872314453125
-0.05804443359375
-0.06024169921875
-0.0629425048828125
-0.0655059814453125
-0.0673370361328125
-0.068389892578125
-0.0674285888671875
-0.0648193359375
-0.06170654296874999
-0.0579986572265625
-0.056488037109375
-0.0603790283203125
-0.06756591796875
-0.0730133056640625
-0.0774078369140625
-0.0775909423828125
-0.069580078125
-0.05548095703125
-0.0466461181640625
-0.038909912109375
-0.0236663818359375
0.0040740966796875
0.038543701171875
0.0800628662109375
0.1258392333984375
0.1695098876953125
0.2174835205078125
0.2671051025390625
0.3028106689453125
0.316314697265625
0.33050537109375
0.3621368408203125
0.4008636474609375
0.4449920654296875
0.4858245849609375
0.5335235595703125
0.5879974365234375
0.6635284423828125
0.7696380615234375
0.8946075439453125
0.9578704833984375
0.8970794677734375
0.7857513427734375
0.670623779296875
0.566986083984375
0.4916839599609375
0.4463653564453125
