ECG
0.0809326171875
0.08935546875
0.0959930419921875
0.10052490234375
0.1020355224609375
0.1039581298828125
0.099334716796875
0.0947113037109375
0.0901336669921875
0.08624267578125
0.0829925537109375
0.0806121826171875
0.08074951171875
0.0822601318359375
0.0856475830078125
0.0895843505859375
0.0915985107421875
0.08990478515625
0.0847320556640625
0.0790557861328125
0.0712738037109375
0.06317138671875
0.0560302734375
0.0486602783203125
0.0438995361328125
0.0417938232421875
0.0421600341796875
0.04339599609375
0.04779052734375
0.04925537109375
0.0504913330078125
0.0499420166015625
0.0434417724609375
0.0350189208984375
0.0240325927734375
0.0149688720703125
0.0083770751953125
0.0016937255859375
-0.0030670166015625
-0.00384521484375
-0.00274658203125
-0.0004119873046875
0.0035247802734375
0.00823974609375
0.013641357421875
0.0163421630859375
0.0133209228515625
0.00897216796875
0.0035247802734375
-0.0037078857421875
-0.0098419189453125
-0.0146026611328125
-0.015335083007812498
-0.0164337158203125
-0.01556396484375
-0.0135040283203125
-0.0106658935546875
-0.0071868896484375
-0.005035400390625
-0.0067291259765625
-0.0090179443359375
-0.011993408203125
-0.0146026611328125
-0.0178985595703125
-0.0201873779296875
-0.02142333984375
-0.022064208984375
-0.0195465087890625
-0.015472412109375
-0.011260986328125
-0.005035400390625
0.0017852783203125
0.007965087890625
0.0111236572265625
0.0108489990234375
0.0089263916015625
0.0042572021484375
-0.0027923583984375
-0.0091094970703125
-0.0139617919921875
-0.0157012939453125
-0.015335083007812498
-0.01373291015625
-0.0106658935546875
-0.0067291259765625
-0.003021240234375
-0.0016021728515625
-0.002288818359375
-0.0047149658203125
-0.0103912353515625
-0.0163421630859375
-0.02032470703125
-0.02618408203125
-0.0314483642578125
-0.033782958984375
-0.0351104736328125
-0.0344696044921875
-0.0308990478515625
-0.02618408203125
-0.0190887451171875
-0.0118560791015625
-0.009979248046875
-0.0114898681640625
-0.0142364501953125
-0.016021728515625
-0.0176239013671875
-0.02178955078125
-0.0259552001953125
-0.0279693603515625
-0.0264129638671875
-0.02471923828125
-0.0228424072265625
-0.0178070068359375
-0.0116729736328125
-0.0062713623046875
-0.0032501220703125
-0.0048065185546875
-0.0076446533203125
-0.0120391845703125
-0.0168914794921875
-0.0201416015625
-0.021881103515625
-0.0212860107421875
-0.0192718505859375
-0.0162506103515625
-0.012908935546875
-0.0063629150390625
-0.0005035400390625
0.0037994384765625
0.0060882568359375
0.0063629150390625
0.0048980712890625
0.0005950927734375
-0.0040740966796875
-0.0062713623046875
-0.0085601806640625
-0.0092010498046875
-0.00933837890625
-0.0074615478515625
-0.0048980712890625
-0.002655029296875
-0.0004119873046875
0.0013275146484375
0.0018768310546875
0.00128173828125
-0.0006866455078125
-0.0052642822265625
-0.01080322265625
-0.0146026611328125
-0.0180816650390625
-0.0191802978515625
-0.018035888671875
-0.0150604248046875
-0.0129547119140625
-0.009796142578125
-0.005767822265625
-0.0030670166015625
-0.0014190673828125
-0.0021514892578125
-0.00421142578125
-0.00897216796875
-0.0133209228515625
-0.0161590576171875
-0.018402099609375
-0.0214691162109375
-0.0235748291015625
-0.0233917236328125
-0.0193634033203125
-0.0135040283203125
-0.0081024169921875
-0.0021514892578125
0.0016937255859375
0.00164794921875
-0.0001373291015625
-0.0052642822265625
-0.0092010498046875
-0.0122222900390625
-0.0151519775390625
-0.01556396484375
-0.0134124755859375
-0.01153564453125
-0.0076446533203125
-0.0006866455078125
0.0074615478515625
0.01593017578125
0.0214691162109375
0.02197265625
0.0211944580078125
0.0183563232421875
0.0157012939453125
0.0131378173828125
0.01007080078125
0.0076446533203125
0.006591796875
0.0088348388671875
0.0138702392578125
0.0164337158203125
0.019317626953125
0.0222930908203125
0.02362060546875
0.0237579345703125
0.0230255126953125
0.02069091796875
0.01849365234375
0.0164337158203125
0.0114898681640625
0.0064544677734375
0.007598876953125
0.0117645263671875
0.0131378173828125
0.01556396484375
0.0209197998046875
0.0233001708984375
0.02105712890625
0.0185394287109375
0.0146026611328125
0.011444091796875
0.00897216796875
0.0064544677734375
0.0039825439453125
0.0018768310546875
0.0031585693359375
0.00494384765625
0.0079193115234375
0.0119476318359375
0.016387939453125
0.0180816650390625
0.0176239013671875
0.015518188476562498
0.01446533203125
0.0117645263671875
0.0084686279296875
0.0063629150390625
0.0061798095703125
0.00567626953125
0.0063629150390625
0.0077362060546875
0.0098876953125
0.0157928466796875
0.0218353271484375
0.0251312255859375
0.024078369140625
0.0241241455078125
0.0247650146484375
0.0234375
0.019866943359375
0.01593017578125
0.0113067626953125
0.0084686279296875
0.0069122314453125
0.0076446533203125
0.0127716064453125
0.02288818359375
0.0312652587890625
0.03533935546875
0.0363006591796875
0.0341033935546875
0.0295257568359375
0.0246734619140625
0.0178070068359375
0.0127716064453125
0.0103912353515625
0.0080108642578125
0.0064544677734375
0.0083770751953125
0.0104827880859375
0.0102996826171875
0.0105743408203125
0.01593017578125
0.0198211669921875
0.0201873779296875
0.017486572265625
0.0125885009765625
0.0069122314453125
0.00238037109375
0.0016937255859375
0.002838134765625
0.0025177001953125
0.002471923828125
0.004119873046875
0.0081939697265625
0.0142364501953125
0.0185394287109375
0.0200958251953125
0.0199127197265625
0.0192718505859375
0.015106201171875
0.0084686279296875
0.0051727294921875
0.00384521484375
0.0039825439453125
0.00494384765625
0.0070037841796875
0.0099334716796875
0.0125885009765625
0.0146942138671875
0.017120361328125
0.015380859375
0.01373291015625
0.014190673828125
0.0109405517578125
0.00640869140625
0.0027923583984375
0.0001373291015625
-0.0009613037109375
-0.00018310546875
0.00347900390625
0.0071868896484375
0.0113067626953125
0.0186309814453125
0.0226593017578125
0.0226593017578125
0.0208282470703125
0.016387939453125
0.0120391845703125
0.006866455078125
0.0040740966796875
0.0022430419921875
0.001373291015625
0.0026092529296875
0.0047149658203125
0.00732421875
0.010345458984375
0.0136871337890625
0.0185394287109375
0.0225677490234375
0.0243988037109375
0.02471923828125
0.0192718505859375
0.012725830078125
0.008880615234375
0.0049896240234375
0.0035247802734375
0.0036163330078125
0.00457763671875
0.00750732421875
0.0116729736328125
0.015289306640625
0.0187225341796875
0.0220184326171875
0.02508544921875
0.027557373046875
0.0317230224609375
0.033782958984375
0.0304412841796875
0.0255889892578125
0.0216522216796875
0.022979736328125
0.0310821533203125
0.0429840087890625
0.0562591552734375
0.0688018798828125
0.08074951171875
0.0900421142578125
0.0961761474609375
0.0984649658203125
0.0959930419921875
0.0899505615234375
0.07855224609375
0.0627593994140625
0.0524139404296875
0.0491180419921875
0.049072265625
0.05255126953125
0.0558929443359375
0.0580902099609375
0.0577239990234375
0.0522308349609375
0.0448150634765625
0.0355682373046875
0.02618408203125
0.0167083740234375
0.0083770751953125
0.0053558349609375
0.0058135986328125
0.0116729736328125
0.0171661376953125
0.0193634033203125
0.0224761962890625
0.0310821533203125
0.03497314453125
0.0330047607421875
0.0260467529296875
0.0175323486328125
0.00823974609375
-4.57763671875e-05
-0.0059051513671875
-0.0120849609375
-0.0157470703125
-0.018768310546875
-0.02252197265625
-0.0263214111328125
-0.0270538330078125
-0.023895263671875
-0.021331787109375
-0.0200958251953125
-0.02178955078125
-0.0241241455078125
-0.02618408203125
-0.0310821533203125
-0.038177490234375
-0.0417022705078125
-0.0422515869140625
-0.0406951904296875
-0.0368499755859375
-0.0326385498046875
-0.0259552001953125
-0.0184478759765625
-0.0138702392578125
-0.0120849609375
-0.0134124755859375
-0.01849365234375
-0.0226593017578125
-0.02764892578125
-0.0344696044921875
-0.0418853759765625
-0.0473785400390625
-0.049346923828125
-0.04925537109375
-0.0420684814453125
-0.030670166015624997
-0.0200042724609375
-0.0113983154296875
-0.0004119873046875
0.02069091796875
0.0527801513671875
0.0917816162109375
0.13201904296875
0.172027587890625
0.21771240234375
0.26385498046875
0.2958526611328125
0.2987823486328125
0.2929229736328125
0.3063812255859375
0.3401641845703125
0.3783416748046875
0.417388916015625
0.4569854736328125
0.5024871826171875
0.5683135986328125
0.6619720458984375
0.7722930908203125
0.8312530517578125
0.7823638916015625
0.6920013427734375
0.5961456298828125
0.49095153808593744
0.3907012939453125
0.3295440673828125
0.3278045654296875
0.3395233154296875
0.3420867919921875
0.3200225830078125
0.2763519287109375
0.2217864990234375
0.1761016845703125
0.1455230712890625
0.1236419677734375
0.112335205078125
0.1000213623046875
0.0837249755859375
0.0544281005859375
0.019317626953125
-0.0165252685546875
-0.0439910888671875
-0.06134033203124999
-0.07891845703125
-0.0962677001953125
-0.1102752685546875
-0.12409973144531249
-0.1342620849609375
-0.1426849365234375
-0.1493682861328125
-0.15545654296875
-0.1578369140625
-0.15765380859375
-0.1577911376953125
-0.15728759765625
-0.1581573486328125
-0.162139892578125
-0.1648406982421875
-0.1695098876953125
-0.1728515625
-0.1770172119140625
-0.1802215576171875
-0.1805419921875
-0.1808624267578125
-0.1819610595703125
-0.18035888671875
-0.1782989501953125
-0.1772918701171875
-0.1748199462890625
-0.1723480224609375
-0.172027587890625
-0.1748199462890625
-0.1787109375
-0.1811370849609375
-0.1828765869140625
-0.1857147216796875
-0.1855316162109375
-0.1836090087890625
-0.1813201904296875
-0.1777496337890625
-0.1728057861328125
-0.1674041748046875
-0.1607208251953125
-0.1552276611328125
-0.1521148681640625
-0.1507415771484375
-0.15142822265625
-0.15399169921875
-0.1555023193359375
-0.15655517578125
-0.1566925048828125
-0.1544036865234375
-0.1522064208984375
-0.1490020751953125
-0.1427764892578125
-0.1373748779296875
-0.1305999755859375
-0.1267547607421875
-0.1270294189453125
-0.1288604736328125
-0.1322479248046875
-0.137237548828125
-0.1442413330078125
-0.14923095703125
-0.1483612060546875
-0.1466217041015625
-0.1454315185546875
-0.1410369873046875
-0.13311767578125
-0.1253814697265625
-0.12030029296875
-0.1198883056640625
-0.12272644042968749
-0.12689208984375
-0.1295928955078125
-0.1317901611328125
-0.1340789794921875
-0.1358184814453125
-0.1354522705078125
-0.1321563720703125
-0.1284027099609375
-0.12469482421875001
-0.1198883056640625
-0.11370849609375
-0.1091766357421875
-0.1063385009765625
-0.1054229736328125
-0.1067047119140625
-0.1099090576171875
-0.11407470703125
-0.1170501708984375
-0.1199798583984375
-0.1216278076171875
-0.11993408203125
-0.1163177490234375
-0.1123809814453125
-0.1080322265625
-0.1056060791015625
-0.1041412353515625
-0.10491943359375
-0.1056060791015625
-0.1058807373046875
-0.108489990234375
-0.1128387451171875
-0.1188812255859375
-0.1216278076171875
-0.12286376953125
-0.1245574951171875
-0.12400817871093751
-0.1212158203125
-0.1178741455078125
-0.115631103515625
-0.1136627197265625
-0.1117401123046875
-0.1126556396484375
-0.1141204833984375
-0.115997314453125
-0.1183319091796875
-0.1221771240234375
-0.1267547607421875
-0.1277618408203125
-0.1298675537109375
-0.12872314453125
-0.1238250732421875
-0.117462158203125
-0.1114654541015625
-0.1021270751953125
-0.099609375
-0.1003875732421875
-0.1026763916015625
-0.1074371337890625
-0.113525390625
-0.1158599853515625
-0.1162261962890625
-0.1149444580078125
-0.1110992431640625
-0.1072540283203125
-0.1029510498046875
-0.09649658203125
-0.08917236328125
-0.0830841064453125
-0.0760345458984375
-0.0718231201171875
-0.0706329345703125
-0.0701751708984375
-0.0703582763671875
-0.0695343017578125
-0.0641326904296875
-0.0568084716796875
-0.0482025146484375
-0.0370330810546875
-0.0274200439453125
-0.0143280029296875
-0.0014190673828125
0.00714111328125
0.0157470703125
0.0241241455078125
0.0307159423828125
0.0318145751953125
0.0340118408203125
0.03900146484375
0.0447235107421875
0.0486602783203125
0.05621337890625
0.0651397705078125
0.0756683349609375
0.08697509765625
0.0960845947265625
0.1024017333984375
0.10638427734375
0.1070709228515625
0.1066131591796875
0.1042327880859375
0.1018524169921875
0.0995635986328125
0.0988311767578125
0.0965423583984375
0.0943450927734375
0.0933380126953125
0.094390869140625
0.0962677001953125
0.0969085693359375
0.0996551513671875
0.101531982421875
0.0977325439453125
0.0909576416015625
0.0825347900390625
0.07379150390625
0.0668792724609375
0.0597381591796875
0.0564422607421875
0.0552520751953125
0.0544281005859375
0.0544281005859375
0.0576324462890625
0.0576324462890625
0.0566253662109375
0.054656982421875
0.0502166748046875
0.044036865234375
0.0379486083984375
0.03240966796875
0.0262298583984375
0.0205535888671875
0.0175323486328125
0.0162506103515625
0.0168914794921875
0.0214691162109375
0.0253143310546875
0.028289794921875
0.03094482421875
0.02874755859375
0.0260467529296875
0.0239410400390625
0.0180816650390625
0.0118560791015625
0.0065460205078125
0.0028839111328125
0.0001373291015625
0.0004119873046875
0.000640869140625
0.0021514892578125
0.0046234130859375
0.0075531005859375
0.0127716064453125
0.015335083007812498
0.01409912109375
0.011810302734375
0.00860595703125
0.00494384765625
0.0004119873046875
-0.0027008056640625
-0.0048065185546875
-0.0067291259765625
-0.0096588134765625
-0.00933837890625
-0.0056304931640625
-0.0019683837890625
0.001007080078125
0.0013275146484375
0.00054931640625
-0.0007781982421875
-0.0047149658203125
-0.0086517333984375
-0.0113983154296875
-0.015380859375
-0.0175323486328125
-0.0161590576171875
-0.0135040283203125
-0.0107574462890625
-0.0074615478515625
-0.0051727294921875
-0.002471923828125
-0.00091552734375
0.00018310546875
-0.00091552734375
-0.0051727294921875
-0.010162353515625
-0.0139617919921875
-0.0175323486328125
-0.02069091796875
-0.02105712890625
-0.0194549560546875
-0.0160675048828125
-0.0120391845703125
-0.0120391845703125
-0.0113525390625
-0.0100250244140625
-0.0114898681640625
-0.01593017578125
-0.0212860107421875
-0.02618408203125
-0.0305328369140625
-0.03167724609375
-0.0322723388671875
-0.0319976806640625
-0.0285186767578125
-0.0231170654296875
-0.0178070068359375
-0.0131378173828125
-0.0103912353515625
-0.008148193359375
-0.008331298828125
-0.0090179443359375
-0.012359619140625
-0.014923095703125
-0.0165252685546875
-0.0178070068359375
-0.0169830322265625
-0.01446533203125
-0.0103912353515625
-0.0070037841796875
-0.0016021728515625
0.0034332275390625
0.0071868896484375
0.0091094970703125
0.0084228515625
0.0064544677734375
0.0038909912109375
0.0017852783203125
-0.0005950927734375
-0.003021240234375
-0.005126953125
-0.0048065185546875
-0.0018768310546875
0.0026092529296875
0.0062713623046875
0.010162353515625
0.0146942138671875
0.0165252685546875
0.01519775390625
0.0124053955078125
0.00750732421875
0.00238037109375
-0.0027008056640625
-0.0094757080078125
-0.01190185546875
-0.0102996826171875
-0.00677490234375
-0.003570556640625
0.0003204345703125
0.0029754638671875
0.0054473876953125
0.0077362060546875
0.00823974609375
0.0059967041015625
0.0017852783203125
-0.00091552734375
-0.002288818359375
-0.0059967041015625
-0.0081024169921875
-0.00750732421875
-0.0068206787109375
-0.0036163330078125
0.0028839111328125
0.0081024169921875
0.0122222900390625
0.0130462646484375
0.0120849609375
0.0094757080078125
0.0062713623046875
0.00274658203125
-0.001007080078125
-0.0054473876953125
-0.00897216796875
-0.0112152099609375
-0.0112152099609375
-0.0070037841796875
-0.0018310546875
0.0040740966796875
0.0083770751953125
0.0113525390625
0.0109405517578125
0.00677490234375
0.0016937255859375
-0.00146484375
-0.0044403076171875
-0.0085601806640625
-0.00897216796875
-0.0054473876953125
-0.0015106201171875
0.00201416015625
0.0065460205078125
0.0121307373046875
0.015518188476562498
0.0165252685546875
0.0160675048828125
0.01446533203125
0.012542724609375
0.008514404296875
0.004852294921875
0.0036163330078125
0.00347900390625
0.00531005859375
0.0069580078125
0.0102996826171875
0.015426635742187498
0.0178985595703125
0.0189056396484375
0.0183563232421875
0.0171661376953125
0.015335083007812498
0.0106658935546875
0.0050811767578125
-0.0005035400390625
-0.0070953369140625
-0.0102081298828125
-0.0113983154296875
-0.01043701171875
-0.00677490234375
0.0009613037109375
0.005584716796875
0.0082855224609375
0.0095672607421875
0.0088348388671875
0.0082855224609375
0.00531005859375
-0.0011444091796875
-0.0073699951171875
-0.0133209228515625
-0.0158843994140625
-0.0158843994140625
-0.0131378173828125
-0.009521484375
-0.0047149658203125
0.0008697509765625
0.005126953125
0.0090179443359375
0.0095672607421875
0.0072784423828125
0.0047149658203125
0.0028839111328125
-0.0009613037109375
-0.00494384765625
-0.0063629150390625
-0.0043487548828125
-0.0002288818359375
0.004852294921875
0.0099334716796875
0.0140533447265625
0.016754150390625
0.0172576904296875
0.0164337158203125
0.01336669921875
0.0086517333984375
0.0042572021484375
0.0005950927734375
-0.0012359619140625
-0.0019683837890625
-0.0012359619140625
0.0017852783203125
0.0061798095703125
0.0104827880859375
0.0146026611328125
0.0189971923828125
0.0211029052734375
0.02105712890625
0.0180816650390625
0.0126800537109375
0.00567626953125
0.0013275146484375
-0.00238037109375
-0.0041656494140625
-0.0037994384765625
-0.0026092529296875
0.0013275146484375
0.009246826171875
0.01556396484375
0.017578125
0.0165252685546875
0.015335083007812498
0.0126800537109375
0.0070953369140625
0.0006866455078125
-0.0056304931640625
-0.0100250244140625
-0.0113983154296875
-0.0113983154296875
-0.0107574462890625
-0.0078277587890625
-0.00146484375
0.00640869140625
0.0145111083984375
0.0211029052734375
0.0230255126953125
0.0217437744140625
0.0165252685546875
0.0124053955078125
0.00860595703125
0.0038909912109375
-4.57763671875e-05
-0.0003204345703125
0.0018310546875
0.0076446533203125
0.013824462890625
0.0200042724609375
0.0248565673828125
0.0276947021484375
0.0270538330078125
0.0248565673828125
0.0195465087890625
0.012908935546875
0.0062713623046875
0.0004119873046875
-0.0027923583984375
-0.002838134765625
-0.0021514892578125
-0.0005035400390625
0.00274658203125
0.0057220458984375
0.0099334716796875
0.0119476318359375
0.01336669921875
0.0115814208984375
0.0071868896484375
0.003753662109375
-4.57763671875e-05
-0.0024261474609375
-0.0023345947265625
-4.57763671875e-05
0.00091552734375
0.0018310546875
0.0037994384765625
0.0070953369140625
0.0109405517578125
0.0102996826171875
0.007049560546875
0.0046234130859375
0.0013275146484375
-0.0034332275390625
-0.0081024169921875
-0.0071868896484375
-0.00347900390625
0.0046234130859375
0.0135955810546875
0.023529052734375
0.0292510986328125
0.0307159423828125
0.03387451171875
0.0384979248046875
0.0438995361328125
0.0483856201171875
0.0523681640625
0.0570831298828125
0.0599212646484375
0.06317138671875
0.0699920654296875
0.0750274658203125
0.0767669677734375
0.077178955078125
0.0720977783203125
0.0651397705078125
0.06138610839843749
0.0607452392578125
0.0607452392578125
0.0604705810546875
0.0551605224609375
0.0493011474609375
0.04083251953125
0.0299835205078125
0.0207366943359375
0.01812744140625
0.0177154541015625
0.0203704833984375
0.0254974365234375
0.0315399169921875
0.0344696044921875
0.0351104736328125
0.0334625244140625
0.0290679931640625
0.0255889892578125
0.0226593017578125
0.0164337158203125
0.007781982421875
0.001739501953125
-0.00091552734375
-0.0025177001953125
-0.002105712890625
-0.0015106201171875
-0.0010528564453125
-0.0001373291015625
-0.0011444091796875
-0.0044403076171875
-0.0088348388671875
-0.01519775390625
-0.0238494873046875
-0.0294342041015625
-0.0315399169921875
-0.0323638916015625
-0.0317230224609375
-0.030120849609375
-0.0263214111328125
-0.0190887451171875
-0.0106658935546875
-0.0030670166015625
0.0003204345703125
-0.0004119873046875
-0.0043487548828125
-0.0096588134765625
-0.0145111083984375
-0.01959228515625
-0.0235748291015625
-0.0250396728515625
-0.0248565673828125
-0.0263214111328125
-0.02490234375
-0.02215576171875
-0.0242156982421875
-0.024810791015625
-0.0265045166015625
-0.0276031494140625
-0.0258636474609375
-0.02142333984375
-0.018402099609375
-0.0167999267578125
-0.0092010498046875
0.0115814208984375
0.046966552734375
0.0952606201171875
0.14501953125
0.1933135986328125
0.24554443359374997
0.29388427734375
0.3196563720703125
0.3120574951171875
0.2985076904296875
0.304229736328125
0.33050537109375
0.3591156005859375
0.3910675048828125
0.4257659912109375
0.4717254638671875
0.5448760986328125
0.6478729248046875
0.765838623046875
0.813720703125
0.75238037109375
0.653961181640625
0.5490875244140625
0.4394073486328125
0.3380584716796875
0.2819366455078125
0.2852783203125
0.3026275634765625
0.3107757568359375
0.2885284423828125
0.24989318847656247
0.2086029052734375
0.1818695068359375
0.1638336181640625
0.1504669189453125
0.14007568359375
0.1230010986328125
0.0963592529296875
0.0559844970703125
0.0101165771484375
-0.0348358154296875
-0.0681610107421875
-0.0879364013671875
-0.10272216796875
-0.113433837890625
-0.1169586181640625
-0.11846923828125
-0.1208038330078125
-0.12400817871093751
-0.1288604736328125
-0.1357269287109375
-0.1440582275390625
-0.1537628173828125
-0.1629180908203125
-0.1703338623046875
-0.1739959716796875
-0.1779327392578125
-0.1812286376953125
-0.1824188232421875
-0.1804046630859375
-0.1748199462890625
-0.1696929931640625
-0.166259765625
-0.1655731201171875
-0.1649322509765625
-0.1661224365234375
-0.1684112548828125
-0.1696929931640625
-0.1710662841796875
-0.1721649169921875
-0.17193603515625
-0.1702423095703125
-0.1683197021484375
-0.1644744873046875
-0.1605377197265625
-0.15509033203125
-0.1501922607421875
-0.1491851806640625
-0.1532135009765625
-0.1571502685546875
-0.1604461669921875
-0.16278076171875
-0.165618896484375
-0.16754150390625
-0.1692352294921875
-0.17047119140625
-0.16864013671875
-0.163238525390625
-0.15875244140625
-0.1555938720703125
-0.1526641845703125
-0.1498260498046875
-0.1481781005859375
-0.1490936279296875
-0.1515655517578125
-0.15325927734375
-0.1534881591796875
-0.1533966064453125
-0.1498260498046875
-0.1441497802734375
-0.1395721435546875
-0.1330718994140625
-0.127166748046875
-0.1219940185546875
-0.11663818359375
-0.1132965087890625
-0.1139373779296875
-0.1164093017578125
-0.1186981201171875
-0.1217193603515625
-0.12579345703125
-0.1285400390625
-0.1285858154296875
-0.1288604736328125
-0.1284027099609375
-0.1250152587890625
-0.1178741455078125
-0.1100921630859375
-0.104095458984375
-0.1017608642578125
-0.1012115478515625
-0.1022186279296875
-0.1021270751953125
-0.1062469482421875
-0.1095428466796875
-0.111419677734375
-0.1113739013671875
-0.1105499267578125
-0.1096343994140625
-0.1078948974609375
-0.10235595703125
-0.097503662109375
-0.0937042236328125
-0.09210205078125
-0.0933380126953125
-0.0986480712890625
-0.1032257080078125
-0.1074371337890625
-0.1105499267578125
-0.114166259765625
-0.1166839599609375
-0.1191558837890625
-0.1186065673828125
-0.1138458251953125
-0.1077117919921875
-0.1051483154296875
-0.104095458984375
-0.10491943359375
-0.1051483154296875
-0.1077117919921875
-0.1110992431640625
-0.1149444580078125
-0.11737060546875
-0.1200714111328125
-0.122406005859375
-0.1213531494140625
-0.1199798583984375
-0.1150360107421875
-0.1110992431640625
-0.1073455810546875
-0.1043243408203125
-0.1029052734375
-0.1051483154296875
-0.105377197265625
-0.1068878173828125
-0.1098175048828125
-0.1121978759765625
-0.1130218505859375
-0.1109161376953125
-0.1083526611328125
-0.1067962646484375
-0.1056060791015625
-0.1026763916015625
-0.0979156494140625
-0.0922393798828125
-0.08880615234375
-0.0858306884765625
-0.0822601318359375
-0.0836334228515625
-0.084228515625
-0.083587646484375
-0.0835418701171875
-0.0810699462890625
-0.0769500732421875
-0.0701751708984375
-0.059051513671875
-0.046051025390625
-0.0342864990234375
-0.0225677490234375
-0.0135955810546875
-0.0083770751953125
-0.00604248046875
-0.0051727294921875
-0.0051727294921875
-0.00054931640625
0.0087432861328125
0.01959228515625
0.02764892578125
0.0363006591796875
0.0458221435546875
0.0568084716796875
0.0694427490234375
0.0793304443359375
0.0867462158203125
0.093658447265625
0.09832763671875
0.0989227294921875
0.0959014892578125
0.0933380126953125
0.0922393798828125
0.0918731689453125
0.0920562744140625
0.0932464599609375
0.097869873046875
0.1030426025390625
0.1083526611328125
0.1127471923828125
0.11151123046875
0.1082611083984375
0.1035919189453125
0.0976409912109375
0.0916900634765625
0.08660888671875
0.07928466796875
0.0736541748046875
0.0717315673828125
0.0707244873046875
0.0701751708984375
0.0688018798828125
0.0671539306640625
0.066741943359375
0.0657806396484375
0.0611114501953125
0.0545196533203125
0.0449066162109375
0.0369415283203125
0.03167724609375
0.0288848876953125
0.0258636474609375
0.0238494873046875
0.0242156982421875
0.0269622802734375
0.0291595458984375
0.0316314697265625
0.0333709716796875
0.0323638916015625
0.0292510986328125
0.0233917236328125
0.015609741210937498
0.0092010498046875
0.0038909912109375
-0.002105712890625
-0.0054473876953125
-0.0045318603515625
-0.00018310546875
0.00421142578125
0.0105743408203125
0.015518188476562498
0.0189056396484375
0.0182647705078125
0.0152435302734375
0.0109405517578125
0.0058135986328125
-0.0005950927734375
-0.0080108642578125
-0.0144195556640625
-0.0200042724609375
-0.0226593017578125
-0.0209197998046875
-0.0158843994140625
-0.0112152099609375
-0.0070037841796875
-0.00457763671875
-0.0021514892578125
-0.0025634765625
-0.0048980712890625
-0.0086517333984375
-0.0131378173828125
-0.019683837890625
-0.0252685546875
-0.0283355712890625
-0.030807495117187503
-0.0318145751953125
-0.0314483642578125
-0.02947998046875
-0.027374267578125
-0.0238494873046875
-0.0209197998046875
-0.0243072509765625
-0.0281524658203125
-0.0290679931640625
-0.029754638671875
-0.0321807861328125
-0.0341949462890625
-0.0327301025390625
-0.03094482421875
-0.03094482421875
-0.025634765625
-0.0209197998046875
-0.0187225341796875
-0.0169830322265625
-0.0182647705078125
-0.0232086181640625
-0.0300750732421875
-0.0352935791015625
-0.0397796630859375
-0.0448150634765625
-0.0465545654296875
-0.0491180419921875
-0.0527801513671875
-0.0523223876953125
-0.0484771728515625
-0.0403289794921875
-0.0316314697265625
-0.0283355712890625
-0.0266876220703125
-0.02545166015625
-0.02508544921875
-0.0254974365234375
-0.0267333984375
-0.027008056640625
-0.0257720947265625
-0.02362060546875
-0.0204620361328125
-0.0160675048828125
-0.0103912353515625
-0.005401611328125
-0.0013275146484375
-0.00091552734375
0.0002288818359375
0.0005950927734375
-0.0011444091796875
-0.0044403076171875
-0.0085601806640625
-0.0113983154296875
-0.0115814208984375
-0.0115814208984375
-0.0113983154296875
-0.0092010498046875
-0.0060882568359375
-0.0012359619140625
0.0048065185546875
0.0104827880859375
0.0104827880859375
0.006683349609375
-0.0019683837890625
-0.008148193359375
-0.0133209228515625
-0.0173492431640625
-0.0224761962890625
-0.0217437744140625
-0.01849365234375
-0.0139617919921875
-0.0088348388671875
-0.00238037109375
0.0047149658203125
0.0097503662109375
0.0091094970703125
0.0080108642578125
0.0090179443359375
0.007598876953125
0.0053558349609375
0.0020599365234375
-0.0019683837890625
-0.00421142578125
-0.0041656494140625
-0.0036163330078125
-0.00128173828125
0.0016021728515625
0.0072784423828125
0.0109405517578125
0.0098419189453125
0.0077362060546875
0.0064544677734375
0.0056304931640625
0.0002288818359375
-0.003753662109375
-0.0072784423828125
-0.0094757080078125
-0.0079193115234375
-0.0041656494140625
0.0011444091796875
0.00860595703125
0.01446533203125
0.01776123046875
0.0184478759765625
0.0185394287109375
0.018768310546875
0.01739501953125
0.0167083740234375
0.0124969482421875
0.0096588134765625
0.0087432861328125
0.011077880859375
0.01263427734375
0.015472412109375
0.0215606689453125
0.0286102294921875
0.0355682373046875
0.0398712158203125
0.0385894775390625
0.0340118408203125
0.0281524658203125
0.01922607421875
0.0091094970703125
0.001739501953125
-0.0037078857421875
-0.0063629150390625
-0.0062713623046875
-0.0013275146484375
0.0070953369140625
0.0157928466796875
0.02362060546875
0.0270538330078125
0.0277862548828125
0.0277862548828125
0.0253143310546875
0.02105712890625
0.0194549560546875
0.01922607421875
0.0205078125
0.0225677490234375
0.0233001708984375
0.0241241455078125
0.027099609375
0.0297088623046875
0.0315399169921875
0.030990600585937503
0.0296173095703125
0.0260467529296875
0.02032470703125
0.0145111083984375
0.0098876953125
0.0041656494140625
0.001922607421875
0.001556396484375
0.0028839111328125
0.0069580078125
0.0112152099609375
0.015838623046875
0.019866943359375
0.0241241455078125
0.0257720947265625
0.0268707275390625
0.0249481201171875
0.022247314453125
0.0189971923828125
0.0172576904296875
0.016937255859375
0.01922607421875
0.0207366943359375
0.0234832763671875
0.0271453857421875
0.0302581787109375
0.0341033935546875
0.034881591796875
0.0350189208984375
0.0353851318359375
0.0344696044921875
0.033050537109375
0.0296173095703125
0.026824951171875
0.0262298583984375
0.0251312255859375
0.0222015380859375
0.0216522216796875
0.02581787109375
0.0287017822265625
0.0298919677734375
0.0307159423828125
0.03314208984375
0.0336456298828125
0.0303955078125
0.02545166015625
0.021240234375
0.0174407958984375
0.0135955810546875
0.0119476318359375
0.0117645263671875
0.0163421630859375
0.0230255126953125
0.0282440185546875
0.0325469970703125
0.0357513427734375
0.0366668701171875
0.03607177734375
0.0344696044921875
0.031768798828125
0.0264129638671875
0.0204620361328125
0.0172576904296875
0.0151519775390625
0.0165252685546875
0.0207366943359375
0.0256805419921875
0.02947998046875
0.0322723388671875
0.0331878662109375
0.0358428955078125
0.0398712158203125
0.0369415283203125
0.0325469970703125
0.0269622802734375
0.0225677490234375
0.02069091796875
0.0211029052734375
0.0234832763671875
0.02874755859375
0.0359344482421875
0.0412445068359375
0.0438995361328125
0.0445404052734375
0.0458221435546875
0.0432586669921875
0.0417938232421875
0.0403289794921875
0.037811279296875
0.0353851318359375
0.0310821533203125
0.0276947021484375
0.0250396728515625
0.0243072509765625
0.0286102294921875
0.0324554443359375
0.03515625
0.0380401611328125
0.040008544921875
0.0406951904296875
0.0397796630859375
0.0349273681640625
0.0300750732421875
0.0267791748046875
0.0248565673828125
0.02471923828125
0.0259552001953125
0.030624389648437503
0.0335540771484375
0.037445068359375
0.0409698486328125
0.0415191650390625
0.0381317138671875
0.03350830078125
0.0264129638671875
0.0210113525390625
0.0174407958984375
0.0127716064453125
0.0135955810546875
0.0161590576171875
0.0193634033203125
0.0244903564453125
0.0286102294921875
0.0292510986328125
0.0274200439453125
0.0243988037109375
0.0209197998046875
0.017852783203125
0.0146942138671875
0.0152435302734375
0.0164337158203125
0.0206451416015625
0.0258636474609375
0.028472900390625
0.0288848876953125
0.0296173095703125
0.0331878662109375
0.0348358154296875
0.0358428955078125
0.0374908447265625
0.0386810302734375
0.0367584228515625
0.0299835205078125
0.0263214111328125
0.0250396728515625
0.0280609130859375
0.0336456298828125
0.0428924560546875
0.049530029296875
0.0533294677734375
0.05914306640625
0.0670166015625
0.0746612548828125
0.08148193359375
0.0864715576171875
0.0898590087890625
0.0907745361328125
0.09173583984375
0.0932464599609375
0.09649658203125
0.0980072021484375
0.0971832275390625
0.0897674560546875
0.084686279296875
0.0853729248046875
0.0874786376953125
0.08770751953125
0.08367919921875
0.07855224609375
0.0705413818359375
0.06198120117187501
0.0527801513671875
0.0441741943359375
0.0400543212890625
0.0402374267578125
0.0418853759765625
0.0424346923828125
0.0429840087890625
0.0425262451171875
0.04083251953125
0.0381317138671875
0.0380859375
0.0380401611328125
0.0323638916015625
0.0186309814453125
0.0055389404296875
-0.0048980712890625
-0.0151519775390625
-0.02142333984375
-0.0245819091796875
-0.02215576171875
-0.0165252685546875
-0.0077362060546875
-0.000457763671875
0.0053558349609375
0.0085601806640625
0.0070037841796875
0.0005950927734375
-0.0088348388671875
-0.016937255859375
-0.0230255126953125
-0.027374267578125
-0.0290679931640625
-0.0293426513671875
-0.0294342041015625
-0.02801513671875
-0.0204620361328125
-0.013641357421875
-0.0084686279296875
-0.005218505859375
-0.004302978515625
-0.0037078857421875
-0.0014190673828125
0.0010528564453125
0.0028839111328125
0.0028839111328125
0.003204345703125
0.003753662109375
0.0021514892578125
0.0001373291015625
-0.0011444091796875
-0.0016021728515625
-0.0009613037109375
0.0009613037109375
0.0077362060546875
0.0094757080078125
0.0065460205078125
0.0094757080078125
0.0274200439453125
0.0579986572265625
0.0966339111328125
0.139801025390625
0.18603515625
0.2379913330078125
0.28106689453125
0.3050079345703125
0.29937744140625
0.2859649658203125
0.2823028564453125
0.2803802490234375
0.2804718017578125
0.2947540283203125
0.3300018310546875
0.3701019287109375
0.42462158203125
0.5115509033203125
0.6010894775390625
0.601776123046875
0.4943389892578125
0.3617706298828125
0.25396728515625
0.1594390869140625
0.0941619873046875
0.08294677734375
0.1175537109375
0.1670379638671875
0.1943206787109375
0.2076873779296875
0.2075042724609375
0.1999053955078125
0.1944122314453125
0.1975250244140625
0.2128143310546875
0.225677490234375
0.2216033935546875
0.19793701171875
0.159027099609375
0.1087188720703125
0.0520477294921875
-9.1552734375e-05
-0.0464630126953125
-0.0801544189453125
-0.09942626953125
-0.1041412353515625
-0.097686767578125
-0.0901336669921875
-0.0844573974609375
-0.0825347900390625
-0.0840911865234375
-0.0891265869140625
-0.0941619873046875
-0.1001129150390625
-0.1091766357421875
-0.1171417236328125
-0.1223602294921875
-0.1269378662109375
-0.13092041015625
-0.1339874267578125
-0.134765625
-0.1333465576171875
-0.129913330078125
-0.12281799316406249
-0.1177825927734375
-0.118194580078125
-0.1194305419921875
-0.1221771240234375
-0.1260223388671875
-0.1305084228515625
-0.1348114013671875
-0.1363677978515625
-0.1360015869140625
-0.1360015869140625
-0.1346282958984375
-0.1296844482421875
-0.1242828369140625
-0.12208557128906249
-0.1217193603515625
-0.12176513671875
-0.1230010986328125
-0.1266632080078125
-0.1302337646484375
-0.13385009765625
-0.1362762451171875
-0.1348114013671875
-0.1321563720703125
-0.1277618408203125
-0.12103271484375
-0.1136627197265625
-0.1081695556640625
-0.1043243408203125
-0.1021728515625
-0.1013031005859375
-0.1019439697265625
-0.1052398681640625
-0.1112823486328125
-0.1182403564453125
-0.1200714111328125
-0.1175994873046875
-0.1137542724609375
-0.1096343994140625
-0.10382080078125
-0.0977325439453125
-0.0934295654296875
-0.0876617431640625
-0.08367919921875
-0.0821685791015625
-0.0807037353515625
-0.0785980224609375
-0.0775909423828125
-0.0774993896484375
-0.080841064453125
-0.08514404296875
-0.085784912109375
-0.0850067138671875
-0.0839996337890625
-0.0832672119140625
-0.0806121826171875
-0.07745361328125
-0.0763092041015625
-0.0750274658203125
-0.0763092041015625
-0.0795135498046875
-0.0853729248046875
-0.0906829833984375
-0.0930633544921875
-0.092193603515625
-0.0894927978515625
-0.0875701904296875
-0.0850067138671875
-0.0829010009765625
-0.0794219970703125
-0.0759429931640625
-0.07452392578125
-0.0759429931640625
-0.0785064697265625
-0.0815277099609375
-0.085693359375
-0.0909576416015625
-0.0948944091796875
-0.0961761474609375
-0.0946197509765625
-0.0905914306640625
-0.0868377685546875
-0.0828094482421875
-0.0773162841796875
-0.0714569091796875
-0.0677032470703125
-0.06829833984375
-0.0699005126953125
-0.0716400146484375
-0.07525634765625
-0.0791473388671875
-0.0829010009765625
-0.0863800048828125
-0.08770751953125
-0.0856475830078125
-0.08258056640625
-0.0773162841796875
-0.0716400146484375
-0.0655975341796875
-0.0607452392578125
-0.0590972900390625
-0.059967041015625
-0.0641326904296875
-0.0667877197265625
-0.06610107421875
-0.0644989013671875
-0.06390380859375
-0.0634918212890625
-0.06248474121093749
-0.05804443359375
-0.052459716796875
-0.0473785400390625
-0.041839599609375
-0.0369415283203125
-0.0357513427734375
-0.0356597900390625
-0.03643798828125
-0.039459228515625
-0.0410614013671875
-0.0425262451171875
-0.0429840087890625
-0.0406951904296875
-0.0344696044921875
-0.0257720947265625
-0.0146026611328125
-0.0058135986328125
0.0027923583984375
0.01007080078125
0.015335083007812498
0.0183563232421875
0.02142333984375
0.02362060546875
0.0258636474609375
0.0291595458984375
0.0331878662109375
0.0405120849609375
0.0486602783203125
0.059783935546875
0.0702667236328125
0.0808868408203125
0.0893096923828125
0.0951690673828125
0.0999298095703125
0.1016693115234375
0.1020355224609375
0.1002960205078125
0.0976409912109375
0.0947113037109375
0.0908660888671875
0.08880615234375
0.0885772705078125
0.090911865234375
0.0919647216796875
0.0931549072265625
0.096221923828125
0.098419189453125
0.0990142822265625
0.0969085693359375
0.0905914306640625
0.0848236083984375
0.0789642333984375
0.0719146728515625
0.0663299560546875
0.064544677734375
0.06427001953125
0.0642242431640625
0.0643157958984375
0.063629150390625
0.0618438720703125
0.0603790283203125
0.0562591552734375
0.0500335693359375
0.044036865234375
0.0363922119140625
0.0262298583984375
0.0192718505859375
0.01556396484375
0.0137786865234375
0.0135040283203125
0.01336669921875
0.0178070068359375
0.02215576171875
0.0246734619140625
0.0241241455078125
0.021881103515625
0.0205078125
0.01593017578125
0.00933837890625
0.0051727294921875
-0.0003204345703125
-0.0016937255859375
-0.0003204345703125
0.0025177001953125
0.0060882568359375
0.011260986328125
0.0163421630859375
0.0214691162109375
0.0258636474609375
0.025634765625
0.0233917236328125
0.0181732177734375
0.01336669921875
0.0082855224609375
0.0061798095703125
0.0039825439453125
0.004302978515625
0.0060882568359375
0.0058135986328125
0.0069122314453125
0.011077880859375
0.015609741210937498
0.0175323486328125
0.0144195556640625
0.007598876953125
0.0010986328125
-0.0090179443359375
-0.019500732421875
-0.0286102294921875
-0.0330963134765625
-0.0351104736328125
-0.0321807861328125
-0.0266876220703125
-0.0191802978515625
-0.0132293701171875
-0.007232666015625
-0.0013275146484375
0.0003204345703125
-0.0003204345703125
-0.002838134765625
-0.0079193115234375
-0.0150604248046875
-0.0209197998046875
-0.0243988037109375
-0.024078369140625
-0.022064208984375
-0.01885986328125
-0.01483154296875
-0.0114898681640625
-0.0070037841796875
-0.00494384765625
-0.0056304931640625
-0.0089263916015625
-0.01190185546875
-0.0163421630859375
-0.02032470703125
-0.02435302734375
-0.0282440185546875
-0.0299835205078125
-0.0303955078125
-0.0286102294921875
-0.0237579345703125
-0.0175323486328125
-0.0104827880859375
-0.0048980712890625
-0.002197265625
-0.0020599365234375
-0.0033416748046875
-0.007598876953125
-0.0119476318359375
-0.0138702392578125
-0.0150604248046875
-0.013092041015625
-0.0116729736328125
-0.0061798095703125
0.0009613037109375
0.00823974609375
0.01483154296875
0.0178985595703125
0.0193634033203125
0.0189971923828125
0.0164337158203125
0.0108489990234375
0.0054473876953125
0.0003204345703125
-0.00274658203125
-0.00274658203125
-0.00201416015625
0.0002288818359375
0.0025177001953125
0.0059051513671875
0.011077880859375
0.01519775390625
0.015609741210937498
0.0115814208984375
0.0038909912109375
-0.0026092529296875
-0.0110321044921875
-0.0192718505859375
-0.02252197265625
-0.0223846435546875
-0.0217437744140625
-0.0178985595703125
-0.01226806640625
-0.0078277587890625
-0.003936767578125
0.0003204345703125
0.001922607421875
0.0028839111328125
0.0024261474609375
-0.0017852783203125
-0.006683349609375
-0.0093841552734375
-0.0135955810546875
-0.016387939453125
-0.0164337158203125
-0.0135955810546875
-0.0094757080078125
-0.0037078857421875
0.0022430419921875
0.0059051513671875
0.0044403076171875
0.00128173828125
-0.00274658203125
-0.0070953369140625
-0.01007080078125
-0.0095672607421875
-0.0062713623046875
-0.002105712890625
0.0030670166015625
0.008148193359375
0.0143280029296875
0.0178985595703125
0.019500732421875
0.02362060546875
0.0244903564453125
0.0244903564453125
0.0237579345703125
0.0205535888671875
0.0149688720703125
0.0109405517578125
0.0093841552734375
0.0107574462890625
0.012908935546875
0.0138702392578125
0.015609741210937498
0.0175323486328125
0.022247314453125
0.0260467529296875
0.0278778076171875
0.0268707275390625
0.02215576171875
0.0132293701171875
0.0058135986328125
0.0002288818359375
-0.002655029296875
-0.0032501220703125
-0.0048980712890625
-0.0070953369140625
-0.0061798095703125
-0.0021514892578125
0.0040740966796875
0.0086517333984375
0.0099334716796875
0.0075531005859375
0.0029754638671875
-0.0017852783203125
-0.0062713623046875
-0.010894775390625
-0.01593017578125
-0.01922607421875
-0.0202789306640625
-0.0188140869140625
-0.01519775390625
-0.010894775390625
-0.00604248046875
-0.0025177001953125
-0.0010528564453125
-0.000274658203125
-0.0023345947265625
-0.0049896240234375
-0.0088348388671875
-0.01373291015625
-0.0164337158203125
-0.0168914794921875
-0.0160675048828125
-0.0136871337890625
-0.008331298828125
-0.0026092529296875
0.0038909912109375
0.0092010498046875
0.01007080078125
0.009521484375
0.00750732421875
0.0055389404296875
0.004669189453125
0.0027923583984375
0.0006866455078125
-0.0010528564453125
-0.0019683837890625
0.000274658203125
0.0057220458984375
0.0137786865234375
0.0197296142578125
0.023895263671875
0.0244903564453125
0.0234832763671875
0.0206451416015625
0.015518188476562498
0.0104827880859375
0.0055389404296875
0.0022430419921875
0.00238037109375
0.0049896240234375
0.0064544677734375
0.0090179443359375
0.01409912109375
0.0179443359375
0.0215606689453125
0.02288818359375
0.02215576171875
0.01922607421875
0.0157012939453125
0.0124053955078125
0.009979248046875
0.0081024169921875
0.0072784423828125
0.0050811767578125
0.0050811767578125
0.0068206787109375
0.0093841552734375
0.0112152099609375
0.0130462646484375
0.0135040283203125
0.0122222900390625
0.0092010498046875
0.0043487548828125
4.57763671875e-05
-0.0041656494140625
-0.007598876953125
-0.0076904296875
-0.0067291259765625
-0.0055389404296875
0.0008697509765625
0.0088348388671875
0.015518188476562498
0.0220184326171875
0.0271453857421875
0.0293426513671875
0.02874755859375
0.02508544921875
0.0215606689453125
0.0148773193359375
0.0097503662109375
0.0070037841796875
0.0068206787109375
0.0095672607421875
0.0148773193359375
0.01922607421875
0.021240234375
0.0237579345703125
0.0276947021484375
0.03314208984375
0.04156494140625
0.0482940673828125
0.0464630126953125
0.039276123046875
0.0346527099609375
0.0358428955078125
0.04339599609375
0.0534210205078125
0.0658721923828125
0.076171875
0.0872039794921875
0.0984649658203125
0.1089019775390625
0.115814208984375
0.1159515380859375
0.11370849609375
0.105926513671875
0.0922393798828125
0.0823516845703125
0.07855224609375
0.0768585205078125
0.0793304443359375
0.0837249755859375
0.0863800048828125
0.0848236083984375
0.0771331787109375
0.0659637451171875
0.05731201171875
0.050262451171875
0.041107177734375
0.0341033935546875
0.0310821533203125
0.0299835205078125
0.02947998046875
0.0284271240234375
0.0283355712890625
0.03240966796875
0.03936767578125
0.0436248779296875
0.0435333251953125
0.0397796630859375
0.0327301025390625
0.0244903564453125
0.0167999267578125
0.0102996826171875
0.00311279296875
-0.0007781982421875
-0.0026092529296875
-0.00421142578125
-0.004852294921875
-0.0040740966796875
-0.0028839111328125
-0.0020599365234375
-0.002288818359375
-0.0029754638671875
-0.004119873046875
-0.0059051513671875
-0.0107574462890625
-0.0148773193359375
-0.015426635742187498
-0.0136871337890625
-0.01080322265625
-0.0095672607421875
-0.0084228515625
-0.00494384765625
0.0012359619140625
0.0055389404296875
0.0086517333984375
0.010345458984375
0.0094757080078125
0.00640869140625
0.0010528564453125
-0.0048065185546875
-0.0113983154296875
-0.0174407958984375
-0.0228424072265625
-0.0277862548828125
-0.0283355712890625
-0.0180816650390625
-0.0041656494140625
0.005218505859375
0.0130462646484375
0.0293426513671875
0.0588226318359375
0.0982818603515625
0.1398468017578125
0.1804046630859375
0.2244415283203125
0.26934814453125
0.3056488037109375
0.3138885498046875
0.306427001953125
0.3164520263671875
0.34735107421875
0.3806304931640625
0.41619873046875
0.45355224609375
0.4927825927734375
0.5499114990234375
0.64031982421875
0.7525177001953125
0.8282318115234375
0.7908782958984375
0.6960296630859375
0.5964202880859375
0.4872894287109375
0.3836517333984375
0.3133392333984375
0.3049163818359375
0.32501220703125
0.3379669189453125
0.3277130126953125
0.290771484375
0.2399139404296875
0.1921234130859375
0.1587066650390625
0.1344451904296875
0.1211700439453125
0.1086273193359375
0.0888519287109375
0.062164306640625
0.02764892578125
-0.0084686279296875
-0.0391387939453125
-0.06024169921875
-0.0770416259765625
-0.09210205078125
-0.1038665771484375
-0.11407470703125
-0.1253814697265625
-0.1341705322265625
-0.1424560546875
-0.1496429443359375
-0.1555938720703125
-0.159576416015625
-0.1607666015625
-0.1587982177734375
-0.1574249267578125
-0.1609039306640625
-0.1665802001953125
-0.1726226806640625
-0.1799468994140625
-0.185577392578125
-0.1900177001953125
-0.192718505859375
-0.1942291259765625
-0.1953277587890625
-0.1915740966796875
-0.1852569580078125
-0.1790313720703125
-0.173492431640625
-0.1702423095703125
-0.1696014404296875
-0.171112060546875
-0.1750030517578125
-0.17889404296875
-0.18109130859375
-0.1836090087890625
-0.1830596923828125
-0.1811370849609375
-0.1779327392578125
-0.1724395751953125
-0.16351318359375
-0.1524810791015625
-0.1450653076171875
-0.1422271728515625
-0.1425933837890625
-0.1433258056640625
-0.1457977294921875
-0.1525726318359375
-0.157928466796875
-0.1626434326171875
-0.1665802001953125
-0.166168212890625
-0.1639251708984375
-0.1595306396484375
-0.15252685546875
-0.1432342529296875
-0.1358184814453125
-0.13385009765625
-0.1336669921875
-0.1326141357421875
-0.1320648193359375
-0.1334381103515625
-0.1359100341796875
-0.1368255615234375
-0.1360015869140625
-0.1352691650390625
-0.133758544921875
-0.1306915283203125
-0.1266632080078125
-0.1203460693359375
-0.1142578125
-0.1100006103515625
-0.109588623046875
-0.1135711669921875
-0.1194305419921875
-0.1243743896484375
-0.1256561279296875
-0.1272125244140625
-0.1316070556640625
-0.1312408447265625
-0.1295013427734375
-0.12483215332031249
-0.1179656982421875
-0.1111907958984375
-0.105194091796875
-0.1028594970703125
-0.101715087890625
-0.103546142578125
-0.1078033447265625
-0.11224365234375
-0.1162261962890625
-0.1207122802734375
-0.1230926513671875
-0.1237335205078125
-0.1205291748046875
-0.1167755126953125
-0.11334228515625
-0.1089935302734375
-0.1056976318359375
-0.1021728515625
-0.1019439697265625
-0.1040496826171875
-0.1054229736328125
-0.1078948974609375
-0.1088104248046875
-0.10968017578125
-0.1110992431640625
-0.1101837158203125
-0.10931396484375
-0.1079864501953125
-0.10601806640625
-0.1030426025390625
-0.1000213623046875
-0.1013031005859375
-0.104827880859375
-0.1078948974609375
-0.112152099609375
-0.116912841796875
-0.1208953857421875
-0.12355041503906249
-0.1270294189453125
-0.128173828125
-0.127166748046875
-0.12432861328125
-0.1197052001953125
-0.1153106689453125
-0.1113739013671875
-0.1067962646484375
-0.1039581298828125
-0.1054229736328125
-0.1098175048828125
-0.1146240234375
-0.11773681640625
-0.1189727783203125
-0.1193389892578125
-0.1172332763671875
-0.1127471923828125
-0.107757568359375
-0.0983734130859375
-0.0896759033203125
-0.0820770263671875
-0.0749359130859375
-0.0696258544921875
-0.0675201416015625
-0.06756591796875
-0.0667877197265625
-0.0659637451171875
-0.0626678466796875
-0.05950927734375
-0.0539703369140625
-0.0460968017578125
-0.0341033935546875
-0.019317626953125
-0.004486083984375
0.009246826171875
0.0208282470703125
0.03057861328125
0.0368499755859375
0.0394134521484375
0.0417938232421875
0.0457305908203125
0.0497589111328125
0.0535125732421875
0.05804443359375
0.0633087158203125
0.0694427490234375
0.0787811279296875
0.0889434814453125
0.0988311767578125
0.1057891845703125
0.1077117919921875
0.1057891845703125
0.1024017333984375
0.0966339111328125
0.090911865234375
0.0860137939453125
0.0820770263671875
0.0781402587890625
0.0769500732421875
0.07672119140625
0.0779571533203125
0.0801544189453125
0.0807952880859375
0.0808868408203125
0.0787811279296875
0.0756683349609375
0.0702667236328125
0.0643157958984375
0.0571746826171875
0.0471038818359375
0.0398712158203125
0.0364837646484375
0.0339202880859375
0.0308990478515625
0.0302581787109375
0.0303497314453125
0.0310821533203125
0.0294342041015625
0.0230255126953125
0.0189056396484375
0.0130462646484375
0.0059051513671875
-0.00091552734375
-0.00677490234375
-0.0107574462890625
-0.0140533447265625
-0.01556396484375
-0.0143280029296875
-0.01080322265625
-0.006317138671875
-0.0025634765625
-0.0015106201171875
-0.00457763671875
-0.0073699951171875
-0.0110321044921875
-0.0142822265625
-0.01812744140625
-0.0214691162109375
-0.0232086181640625
-0.0224761962890625
-0.022705078125
-0.021148681640625
-0.0149688720703125
-0.00860595703125
-0.0041656494140625
-0.0010528564453125
0.0005950927734375
0.0028839111328125
0.0027923583984375
0.0011444091796875
-0.0012359619140625
-0.00439453125
-0.0078277587890625
-0.0081939697265625
-0.0069122314453125
-0.0054931640625
-0.0032501220703125
-0.0016021728515625
0.001373291015625
0.0021514892578125
0.001556396484375
-0.0009613037109375
-0.0045318603515625
-0.009613037109375
-0.01629638671875
-0.02032470703125
-0.0206451416015625
-0.01995849609375
-0.0198211669921875
-0.01776123046875
-0.0136871337890625
-0.009613037109375
-0.0081024169921875
-0.0081024169921875
-0.0095672607421875
-0.0128631591796875
-0.018951416015625
-0.0248565673828125
-0.0299835205078125
-0.0336456298828125
-0.0363006591796875
-0.0362548828125
-0.0352020263671875
-0.0321807861328125
-0.0284271240234375
-0.02508544921875
-0.0232086181640625
-0.0226593017578125
-0.0239410400390625
-0.0254974365234375
-0.028106689453125
-0.0320892333984375
-0.0356597900390625
-0.0385894775390625
-0.03936767578125
-0.0374908447265625
-0.035430908203125
-0.0323638916015625
-0.0264129638671875
-0.02032470703125
-0.0157012939453125
-0.0112152099609375
-0.00714111328125
-0.0050811767578125
-0.0051727294921875
-0.0058135986328125
-0.0081939697265625
-0.0100250244140625
-0.0109405517578125
-0.0101165771484375
-0.0093841552734375
-0.006134033203125
0.00128173828125
0.0066375732421875
0.0113983154296875
0.0149688720703125
0.01702880859375
0.0178070068359375
0.0162506103515625
0.012451171875
0.0072784423828125
0.0031585693359375
-0.0006866455078125
-0.00128173828125
0.0017852783203125
0.0054473876953125
0.009429931640625
0.0147857666015625
0.0200042724609375
0.0233917236328125
0.0220184326171875
0.0181732177734375
0.0152435302734375
0.0124053955078125
0.0092010498046875
0.0053558349609375
0.0030670166015625
0.0019683837890625
0.00091552734375
0.00164794921875
0.0058135986328125
0.0102996826171875
0.01373291015625
0.0157012939453125
0.0126800537109375
0.0085601806640625
0.0048065185546875
0.0005950927734375
-0.0053558349609375
-0.0109405517578125
-0.0146942138671875
-0.0150146484375
-0.0118560791015625
-0.0074615478515625
-0.0015106201171875
0.0042572021484375
0.0077362060546875
0.0104827880859375
0.0113067626953125
0.0082855224609375
0.0033416748046875
-0.0026092529296875
-0.0063629150390625
-0.0086517333984375
-0.0116729736328125
-0.013824462890625
-0.0099334716796875
-0.0029296875
0.0033416748046875
0.0102081298828125
0.0167083740234375
0.0212860107421875
0.0231170654296875
0.02435302734375
0.0222015380859375
0.0167999267578125
0.0093841552734375
0.0062713623046875
0.006134033203125
0.0065460205078125
0.0092010498046875
0.011810302734375
0.0164337158203125
0.0216522216796875
0.0259552001953125
0.0276031494140625
0.0247650146484375
0.0215606689453125
0.0178985595703125
0.0127716064453125
0.0065460205078125
0.0011444091796875
-0.0038909912109375
-0.0052642822265625
-0.004119873046875
-0.001007080078125
0.0043487548828125
0.008697509765625
0.011993408203125
0.0140533447265625
0.01446533203125
0.01300048828125
0.009246826171875
0.0047149658203125
-0.0004119873046875
-0.0048065185546875
-0.0066375732421875
-0.0080108642578125
-0.0102081298828125
-0.0085601806640625
-0.0030670166015625
0.0014190673828125
0.0048065185546875
0.00604248046875
0.0059051513671875
0.0037078857421875
-0.0005035400390625
-0.005584716796875
-0.0102996826171875
-0.0139617919921875
-0.0157928466796875
-0.015518188476562498
-0.012908935546875
-0.0095672607421875
-0.0012359619140625
0.0058135986328125
0.0098419189453125
0.0108489990234375
0.0082855224609375
0.0044403076171875
-0.0015106201171875
-0.0078277587890625
-0.010528564453125
-0.0114898681640625
-0.0118560791015625
-0.009979248046875
-0.0087432861328125
-0.0056304931640625
-0.0008697509765625
0.0046234130859375
0.010528564453125
0.0149688720703125
0.0151519775390625
0.0120391845703125
0.009246826171875
0.00604248046875
0.00457763671875
0.0027008056640625
0.00146484375
-0.0006866455078125
-0.0025177001953125
-0.0007781982421875
0.0048980712890625
0.010345458984375
0.01263427734375
0.013458251953125
0.0129547119140625
0.0113983154296875
0.0065460205078125
-0.00091552734375
-0.0062713623046875
-0.0098876953125
-0.01043701171875
-0.0085601806640625
-0.00714111328125
-0.0037994384765625
0.0010528564453125
0.0049896240234375
0.0089263916015625
0.0103912353515625
0.0092010498046875
0.0049896240234375
0.000732421875
-0.0027923583984375
-0.0077362060546875
-0.0135955810546875
-0.0162506103515625
-0.015335083007812498
-0.0133209228515625
-0.0098419189453125
-0.0056304931640625
-0.0021514892578125
-0.0004119873046875
0.000457763671875
-0.0006866455078125
-0.0030670166015625
-0.006134033203125
-0.00933837890625
-0.01153564453125
-0.0128631591796875
-0.0141448974609375
-0.015518188476562498
-0.014556884765625
-0.01153564453125
-0.0048065185546875
0.0042572021484375
0.0139617919921875
0.0212860107421875
0.0223846435546875
0.0205535888671875
0.0176239013671875
0.0135040283203125
0.0081939697265625
0.0032501220703125
4.57763671875e-05
0.0027923583984375
0.0038909912109375
0.00531005859375
0.0109405517578125
0.0173492431640625
0.0259552001953125
0.0361175537109375
0.0415191650390625
0.04119873046875
0.0352020263671875
0.0292510986328125
0.0255889892578125
0.027374267578125
0.0308990478515625
0.0397796630859375
0.048614501953125
0.0561676025390625
0.0647735595703125
0.0767669677734375
0.0871124267578125
0.0934295654296875
0.0945281982421875
0.0881195068359375
0.0737457275390625
0.0605621337890625
0.05255126953125
0.0478363037109375
0.0462799072265625
0.0452728271484375
0.0431671142578125
0.0413360595703125
0.03900146484375
0.0344696044921875
0.0295257568359375
0.0266876220703125
0.0222930908203125
0.0165252685546875
0.0141448974609375
0.0115814208984375
0.007781982421875
0.0053558349609375
0.00604248046875
0.0084686279296875
0.01446533203125
0.0178070068359375
0.0220184326171875
0.023529052734375
0.0208282470703125
0.0168914794921875
0.0098876953125
0.0018768310546875
-0.0058135986328125
-0.0117645263671875
-0.0172119140625
-0.0234375
-0.0290679931640625
-0.0338287353515625
-0.0358428955078125
-0.0368499755859375
-0.03350830078125
-0.0278778076171875
-0.022247314453125
-0.0199127197265625
-0.0192718505859375
-0.0205535888671875
-0.0213775634765625
-0.0237579345703125
-0.025360107421875
-0.025726318359375
-0.02490234375
-0.0221099853515625
-0.0204620361328125
-0.0176239013671875
-0.012725830078125
-0.0067291259765625
-0.0032958984375
-0.0044403076171875
-0.0085601806640625
-0.0124969482421875
-0.0200042724609375
-0.0265960693359375
-0.032958984375
-0.04010009765625
-0.04083251953125
-0.0341033935546875
-0.0272369384765625
-0.021331787109375
-0.0101165771484375
0.0117645263671875
0.0458221435546875
0.0908660888671875
0.1392974853515625
0.1834259033203125
0.2298431396484375
0.2739715576171875
0.3061981201171875
0.306976318359375
0.2939300537109375
0.2969512939453125
0.3219451904296875
0.3546295166015625
0.3917999267578125
0.434051513671875
0.4818878173828125
0.543731689453125
0.6367034912109375
0.7503204345703125
0.8255767822265625
0.7842864990234375
0.68719482421875
0.58831787109375
0.47882080078125
0.3759613037109375
0.3021697998046875
0.2928314208984375
0.3153533935546875
0.3349456787109375
0.3299102783203125
0.2987823486328125
0.2537384033203125
0.2127685546875
0.1840667724609375
0.1607208251953125
0.1462554931640625
0.1294097900390625
0.106475830078125
0.07305908203125
0.0300750732421875
-0.0092010498046875
-0.0385894775390625
-0.0530548095703125
-0.0647735595703125
-0.07489013671875
-0.0818023681640625
-0.0879364013671875
-0.0991058349609375
-0.1110992431640625
-0.123138427734375
-0.1356353759765625
-0.1466217041015625
-0.1541290283203125
-0.1582489013671875
-0.1609954833984375
-0.1619110107421875
-0.15985107421875
-0.1580657958984375
-0.1581573486328125
-0.1589813232421875
-0.1629180908203125
-0.168914794921875
-0.1750946044921875
-0.17779541015625
-0.1794891357421875
-0.178802490234375
-0.1769256591796875
-0.1717071533203125
-0.1668548583984375
-0.1600799560546875
-0.1518402099609375
-0.146209716796875
-0.144927978515625
-0.1453399658203125
-0.1473541259765625
-0.1509246826171875
-0.1543121337890625
-0.1563262939453125
-0.1576080322265625
-0.1589813232421875
-0.1605377197265625
-0.1604461669921875
-0.1590728759765625
-0.155364990234375
-0.14739990234375
-0.1397552490234375
-0.1345367431640625
-0.131378173828125
-0.1318817138671875
-0.1350860595703125
-0.139801025390625
-0.1425018310546875
-0.1461639404296875
-0.1464385986328125
-0.1440582275390625
-0.1411285400390625
-0.1358184814453125
-0.128082275390625
-0.1197967529296875
-0.1131134033203125
-0.108856201171875
-0.1065216064453125
-0.1074371337890625
-0.1101837158203125
-0.1145782470703125
-0.1194305419921875
-0.1230010986328125
-0.1239166259765625
-0.1211700439453125
-0.11846923828125
-0.1144866943359375
-0.10821533203125
-0.1019439697265625
-0.0972747802734375
-0.0948944091796875
-0.095489501953125
-0.0986480712890625
-0.1024932861328125
-0.107391357421875
-0.1121063232421875
-0.114532470703125
-0.1157684326171875
-0.1149444580078125
-0.1135711669921875
-0.1107330322265625
-0.1060638427734375
-0.1017608642578125
-0.098419189453125
-0.0964508056640625
-0.0967254638671875
-0.0977325439453125
-0.0999298095703125
-0.1052398681640625
-0.1089019775390625
-0.1121063232421875
-0.1134796142578125
-0.11187744140625
-0.1089935302734375
-0.1064300537109375
-0.102447509765625
-0.0992889404296875
-0.0967254638671875
-0.09539794921875
-0.0948944091796875
-0.0973663330078125
-0.100250244140625
-0.1044158935546875
-0.1083526611328125
-0.1110992431640625
-0.114532470703125
-0.1144866943359375
-0.1121063232421875
-0.1089019775390625
-0.1043243408203125
-0.0987396240234375
-0.0956268310546875
-0.09503173828125
-0.0953521728515625
-0.0994720458984375
-0.1044158935546875
-0.1100921630859375
-0.1136627197265625
-0.1164093017578125
-0.117279052734375
-0.11773681640625
-0.1170501708984375
-0.1128387451171875
-0.1056976318359375
-0.0963134765625
-0.0894012451171875
-0.0861053466796875
-0.0848236083984375
-0.08642578125
-0.0904083251953125
-0.09466552734375
-0.0982818603515625
-0.0997467041015625
-0.096038818359375
-0.0900421142578125
-0.0832672119140625
-0.0746612548828125
-0.0640411376953125
-0.0556182861328125
-0.0464630126953125
-0.0397796630859375
-0.0362091064453125
-0.0350189208984375
-0.0385894775390625
-0.0417022705078125
-0.0432586669921875
-0.04193115234375
-0.03900146484375
-0.03277587890625
-0.02215576171875
-0.01080322265625
0.0017852783203125
0.0146026611328125
0.0265045166015625
0.0367584228515625
0.0462799072265625
0.0516815185546875
0.0549774169921875
0.0592803955078125
0.06243896484374999
0.0651397705078125
0.068756103515625
0.0748443603515625
0.08074951171875
0.0884857177734375
0.0975494384765625
0.106842041015625
0.1121063232421875
0.1152191162109375
0.1168670654296875
0.1137542724609375
0.1078948974609375
0.1010284423828125
0.0934295654296875
0.0852813720703125
0.07745361328125
0.0736541748046875
0.0720062255859375
0.0723724365234375
0.0763092041015625
0.0787811279296875
0.0784149169921875
0.07781982421875
0.0746612548828125
0.0705413818359375
0.0644989013671875
0.0580902099609375
0.0515899658203125
0.0449981689453125
0.040557861328125
0.037811279296875
0.0373992919921875
0.0372161865234375
0.038726806640625
0.0400543212890625
0.04193115234375
0.03900146484375
0.0344696044921875
0.0292510986328125
0.0232086181640625
0.0167999267578125
0.012176513671875
0.0078277587890625
0.0060882568359375
0.0052642822265625
0.005767822265625
0.0081939697265625
0.01171875
0.01593017578125
0.0185394287109375
0.01666259765625
0.012359619140625
0.0070037841796875
0.0002288818359375
-0.0074615478515625
-0.015380859375
-0.0207366943359375
-0.021697998046875
-0.0200042724609375
-0.0166168212890625
-0.012359619140625
-0.0089263916015625
-0.0060882568359375
-0.00384521484375
-0.0013275146484375
0.0010528564453125
0.001190185546875
-0.0010528564453125
-0.0052642822265625
-0.0103912353515625
-0.01300048828125
-0.0141448974609375
-0.0151519775390625
-0.0151519775390625
-0.017120361328125
-0.0167999267578125
-0.0146026611328125
-0.0095672607421875
-0.0056304931640625
-0.0059051513671875
-0.007965087890625
-0.0106658935546875
-0.0152435302734375
-0.0198211669921875
-0.0226593017578125
-0.0239410400390625
-0.02288818359375
-0.0228424072265625
-0.0237579345703125
-0.0256805419921875
-0.0256805419921875
-0.0234832763671875
-0.021697998046875
-0.02197265625
-0.0246734619140625
-0.0293426513671875
-0.03350830078125
-0.0356597900390625
-0.0360260009765625
-0.0375823974609375
-0.0382232666015625
-0.0377197265625
-0.034698486328125
-0.030853271484374997
-0.0274658203125
-0.023895263671875
-0.0214691162109375
-0.02325439453125
-0.0264129638671875
-0.0302581787109375
-0.0344696044921875
-0.0355682373046875
-0.0387725830078125
-0.0384979248046875
-0.0363922119140625
-0.03424072265625
-0.0295257568359375
-0.0253143310546875
-0.0243072509765625
-0.024810791015625
-0.02435302734375
-0.02508544921875
-0.0245819091796875
-0.0234375
-0.0227508544921875
-0.0222930908203125
-0.0222015380859375
-0.0210113525390625
-0.0183563232421875
-0.0139617919921875
-0.0073699951171875
0.00018310546875
0.0085601806640625
0.0141448974609375
0.016021728515625
0.0141448974609375
0.0124053955078125
0.0113067626953125
0.009796142578125
0.0088348388671875
0.00860595703125
0.0092010498046875
0.008697509765625
0.0088348388671875
0.0082855224609375
0.0092926025390625
0.0113983154296875
0.0131378173828125
0.01080322265625
0.00640869140625
0.0017852783203125
-0.0008697509765625
-0.0029754638671875
-0.0066375732421875
-0.007965087890625
-0.0081024169921875
-0.007781982421875
-0.007781982421875
-0.0056304931640625
-4.57763671875e-05
0.0058135986328125
0.0116729736328125
0.0142364501953125
0.0142364501953125
0.0123138427734375
0.0058135986328125
-0.001739501953125
-0.0068206787109375
-0.009796142578125
-0.012908935546875
-0.01446533203125
-0.0122222900390625
-0.0042572021484375
0.0050811767578125
0.0124053955078125
0.0192718505859375
0.0233001708984375
0.0247650146484375
0.02105712890625
0.0141448974609375
0.0085601806640625
0.0064544677734375
0.004486083984375
0.0010986328125
-0.002471923828125
-0.00146484375
0.0018310546875
0.0081024169921875
0.01409912109375
0.0211944580078125
0.0249481201171875
0.0247650146484375
0.0222930908203125
0.0182647705078125
0.0163421630859375
0.0167999267578125
0.018402099609375
0.0170745849609375
0.01300048828125
0.01190185546875
0.0166168212890625
0.0230255126953125
0.0282440185546875
0.0316314697265625
0.0328216552734375
0.0314483642578125
0.02764892578125
0.0222930908203125
0.018585205078125
0.0162506103515625
0.013092041015625
0.0115814208984375
0.0106658935546875
0.011627197265625
0.0146942138671875
0.0189971923828125
0.021697998046875
0.0223846435546875
0.0210113525390625
0.0178070068359375
0.01483154296875
0.0104827880859375
0.005950927734375
0.0024261474609375
0.0013275146484375
0.0005950927734375
-0.0007781982421875
0.0009613037109375
0.0068206787109375
0.0152435302734375
0.021331787109375
0.0243988037109375
0.0243072509765625
0.0242156982421875
0.02471923828125
0.022247314453125
0.01776123046875
0.0124053955078125
0.0075531005859375
0.0018768310546875
-0.0012359619140625
-0.0016021728515625
0.001007080078125
0.00421142578125
0.0089263916015625
0.0132293701171875
0.0139617919921875
0.0115814208984375
0.007049560546875
0.0031585693359375
0.0008697509765625
-0.0011444091796875
-0.0001373291015625
0.0023345947265625
0.0043487548828125
0.0061798095703125
0.00787353515625
0.0133209228515625
0.0193634033203125
0.0251312255859375
0.0275115966796875
0.0279693603515625
0.0261383056640625
0.0220184326171875
0.0172576904296875
0.0138702392578125
0.0108489990234375
0.007965087890625
0.0083770751953125
0.0109405517578125
0.0164794921875
0.0240325927734375
0.028839111328125
0.0315399169921875
0.0322723388671875
0.02655029296875
0.0173492431640625
0.0086517333984375
0.0026092529296875
0.0003204345703125
-0.00054931640625
-0.0002288818359375
0.000640869140625
0.001556396484375
0.0028839111328125
0.00860595703125
0.0142364501953125
0.02069091796875
0.02490234375
0.0261383056640625
0.02581787109375
0.0244903564453125
0.0193634033203125
0.012359619140625
0.0079193115234375
0.0069580078125
0.00567626953125
0.0062255859375
0.01043701171875
0.01446533203125
0.0186309814453125
0.0227508544921875
0.0252227783203125
0.0257720947265625
0.025543212890625
0.0197296142578125
0.0132293701171875
0.0079193115234375
0.0024261474609375
-0.0027008056640625
-0.0053558349609375
-0.0052642822265625
-0.0019683837890625
0.00421142578125
0.0113067626953125
0.0185394287109375
0.0233917236328125
0.0270538330078125
0.0289764404296875
0.0301666259765625
0.0292510986328125
0.0310821533203125
0.0300750732421875
0.0285186767578125
0.0295257568359375
0.0300750732421875
0.0276947021484375
0.0289764404296875
0.030303955078125
0.030990600585937503
0.0320892333984375
0.032318115234375
0.03021240234375
0.025177001953125
0.0200958251953125
0.0183563232421875
0.0182647705078125
0.0203704833984375
0.0273284912109375
0.0326385498046875
0.0354766845703125
0.0406951904296875
0.0474700927734375
0.0563507080078125
0.06243896484374999
0.0690765380859375
0.0758056640625
0.0831756591796875
0.0879364013671875
0.0884857177734375
0.0897674560546875
0.0916900634765625
0.0908203125
0.0812530517578125
0.07122802734375
0.0679779052734375
0.070220947265625
0.0724639892578125
0.0731048583984375
0.0706329345703125
0.0647735595703125
0.0556182861328125
0.0453643798828125
0.0335540771484375
0.0244903564453125
0.0214691162109375
0.0236663818359375
0.0276031494140625
0.030807495117187503
0.033599853515625
0.0375823974609375
0.0419769287109375
0.0440826416015625
0.0463714599609375
0.0446319580078125
0.03753662109375
0.0297088623046875
0.0200042724609375
0.011993408203125
0.0022430419921875
-0.0037994384765625
-0.0077362060546875
-0.00823974609375
-0.00384521484375
0.0016021728515625
0.00457763671875
0.003204345703125
0.0011444091796875
-0.0012359619140625
-0.0034332275390625
-0.00860595703125
-0.0144195556640625
-0.0197296142578125
-0.0186309814453125
-0.0138702392578125
-0.0092010498046875
-0.0030670166015625
0.0
0.00201416015625
0.0043487548828125
0.0048065185546875
0.0026092529296875
-0.000274658203125
-0.0037994384765625
-0.00933837890625
-0.0144195556640625
-0.0149688720703125
-0.0149688720703125
-0.0131378173828125
-0.0139617919921875
-0.0151519775390625
-0.0161590576171875
-0.01666259765625
-0.0171661376953125
-0.015838623046875
-0.008331298828125
-0.000274658203125
0.0022430419921875
0.00640869140625
0.0214691162109375
0.048248291015625
0.0841827392578125
0.1269378662109375
0.1714324951171875
0.2197723388671875
0.2688446044921875
0.3090362548828125
0.323272705078125
0.3085784912109375
0.2984161376953125
0.2993316650390625
0.3008880615234375
0.3050079345703125
0.32904052734375
0.3642425537109375
0.4014129638671875
0.4639434814453125
0.5635528564453125
0.6371612548828125
0.595550537109375
0.4690704345703125
0.34442138671875
0.2397308349609375
0.1467132568359375
0.0882110595703125
0.0886688232421875
0.1298675537109375
0.1725311279296875
0.1944122314453125
0.1979827880859375
0.1859893798828125
0.173126220703125
0.1669464111328125
0.1753692626953125
0.1931304931640625
0.2069549560546875
0.2006378173828125
0.1708831787109375
0.1277618408203125
0.0722808837890625
0.0157012939453125
-0.0354766845703125
-0.075164794921875
-0.10089111328125
-0.11517333984375
-0.116363525390625
-0.1098175048828125
-0.1039581298828125
-0.0978240966796875
-0.0974578857421875
-0.1013031005859375
-0.1061553955078125
-0.11151123046875
-0.1181488037109375
-0.1251983642578125
-0.13238525390625
-0.1381072998046875
-0.1414031982421875
-0.14373779296875
-0.1432342529296875
-0.142822265625
-0.1414947509765625
-0.1395263671875
-0.1343994140625
-0.1312408447265625
-0.1289520263671875
-0.1278076171875
-0.1287689208984375
-0.1329803466796875
-0.1349029541015625
-0.1377410888671875
-0.139617919921875
-0.1407623291015625
-0.1384735107421875
-0.134124755859375
-0.1272125244140625
-0.11920166015625
-0.1128387451171875
-0.1109619140625
-0.1083984375
-0.10968017578125
-0.1136627197265625
-0.118743896484375
-0.12474060058593751
-0.131103515625
-0.1325225830078125
-0.129913330078125
-0.1259307861328125
-0.1222686767578125
-0.11993408203125
-0.1191558837890625
-0.1164093017578125
-0.114715576171875
-0.1139373779296875
-0.1147613525390625
-0.1176910400390625
-0.1198883056640625
-0.1195220947265625
-0.11920166015625
-0.1191558837890625
-0.1168670654296875
-0.1106414794921875
-0.10235595703125
-0.0919647216796875
-0.0816192626953125
-0.0721893310546875
-0.0676116943359375
-0.0662384033203125
-0.070953369140625
-0.0789642333984375
-0.086883544921875
-0.0970001220703125
-0.1065216064453125
-0.1125640869140625
-0.1139373779296875
-0.11077880859375
-0.1032257080078125
-0.09393310546875
-0.0828094482421875
-0.0729217529296875
-0.0660552978515625
-0.0627593994140625
-0.0644989013671875
-0.070220947265625
-0.0764007568359375
-0.0807037353515625
-0.0850982666015625
-0.08734130859375
-0.08770751953125
-0.0864715576171875
-0.0822601318359375
-0.0769500732421875
-0.0722808837890625
-0.0703582763671875
-0.0711822509765625
-0.0731048583984375
-0.0748443603515625
-0.07818603515625
-0.083953857421875
-0.0912322998046875
-0.0978240966796875
-0.0990142822265625
-0.0971832275390625
-0.09246826171875
-0.0867462158203125
-0.082305908203125
-0.0799713134765625
-0.0776824951171875
-0.0766754150390625
-0.074981689453125
-0.0751190185546875
-0.0789642333984375
-0.0839080810546875
-0.0886688232421875
-0.0942535400390625
-0.0963592529296875
-0.0959014892578125
-0.0924224853515625
-0.0861968994140625
-0.0789642333984375
-0.0717315673828125
-0.0644989013671875
-0.0588226318359375
-0.0546112060546875
-0.053466796875
-0.0531463623046875
-0.0552520751953125
-0.0590972900390625
-0.0625762939453125
-0.0626678466796875
-0.05841064453125
-0.05401611328125
-0.0497589111328125
-0.044036865234375
-0.0368499755859375
-0.02911376953125
-0.0220184326171875
-0.0188140869140625
-0.0186309814453125
-0.0216522216796875
-0.0222930908203125
-0.0234375
-0.0230255126953125
-0.021514892578125
-0.0160675048828125
-0.0126800537109375
-0.0098419189453125
-0.0039825439453125
0.0062713623046875
0.0171661376953125
0.02471923828125
0.0297088623046875
0.0350189208984375
0.0394134521484375
0.04522705078125
0.0510406494140625
0.057037353515625
0.0625762939453125
0.0690765380859375
0.0748443603515625
0.0804290771484375
0.08587646484375
0.0952606201171875
0.10455322265625
0.1097259521484375
0.1088104248046875
0.1079864501953125
0.105377197265625
0.10089111328125
0.0971832275390625
0.094207763671875
0.0929718017578125
0.0914154052734375
0.0900421142578125
0.0926055908203125
0.0948028564453125
0.0971832275390625
0.0997467041015625
0.097503662109375
0.0911865234375
0.08258056640625
0.0758514404296875
0.0696258544921875
0.0643157958984375
0.0589141845703125
0.0553436279296875
0.052825927734375
0.0514984130859375
0.0485687255859375
0.0452728271484375
0.04339599609375
0.04339599609375
0.0424346923828125
0.03753662109375
0.0310821533203125
0.0240325927734375
0.014739990234375
0.0059051513671875
-0.0025177001953125
-0.0046234130859375
-0.0032958984375
0.0002288818359375
0.0023345947265625
0.0053558349609375
0.0092926025390625
0.0128631591796875
0.01409912109375
0.0119476318359375
0.0101165771484375
0.0058135986328125
0.0005950927734375
-0.001556396484375
-0.00164794921875
-0.0008697509765625
-0.0007781982421875
-0.0012359619140625
0.00091552734375
0.0062713623046875
0.0119476318359375
0.0179901123046875
0.02069091796875
0.019500732421875
0.0159759521484375
0.0123138427734375
0.0083770751953125
0.0038909912109375
0.0002288818359375
-0.001007080078125
-0.0043487548828125
-0.0073699951171875
-0.0085601806640625
-0.0084686279296875
-0.0064544677734375
-0.002838134765625
0.0020599365234375
0.0045318603515625
0.0043487548828125
-0.00146484375
-0.007232666015625
-0.0130462646484375
-0.0184478759765625
-0.0217437744140625
-0.0232086181640625
-0.0255889892578125
-0.0252227783203125
-0.0222930908203125
-0.019134521484375
-0.0184478759765625
-0.0201873779296875
-0.0206451416015625
-0.0230255126953125
-0.0271453857421875
-0.0307159423828125
-0.0333251953125
-0.0344696044921875
-0.0345611572265625
-0.03277587890625
-0.0300750732421875
-0.0274200439453125
-0.0240325927734375
-0.022064208984375
-0.019683837890625
-0.021331787109375
-0.02581787109375
-0.03131103515625
-0.0358428955078125
-0.0380859375
-0.0403289794921875
-0.040924072265625
-0.0387725830078125
-0.0334625244140625
-0.0288848876953125
-0.0221099853515625
-0.01409912109375
-0.0051727294921875
0.0031585693359375
0.0084686279296875
0.0070953369140625
0.0033416748046875
-0.001190185546875
-0.0057220458984375
-0.0091094970703125
-0.01300048828125
-0.01593017578125
-0.0161590576171875
-0.0144195556640625
-0.0117645263671875
-0.00714111328125
-0.0013275146484375
0.0047149658203125
0.007781982421875
0.006317138671875
0.004302978515625
0.0014190673828125
-0.00311279296875
-0.0074615478515625
-0.0102996826171875
-0.0105743408203125
-0.0083770751953125
-0.0055389404296875
-0.00274658203125
0.00164794921875
0.0048065185546875
0.0076446533203125
0.0102081298828125
0.0102081298828125
0.0087432861328125
0.0046234130859375
-0.0013275146484375
-0.0070037841796875
-0.0110321044921875
-0.0125885009765625
-0.0102996826171875
-0.0077362060546875
-0.0036163330078125
0.0005035400390625
0.0047149658203125
0.0075531005859375
0.0086517333984375
0.0082855224609375
0.0055389404296875
0.0005950927734375
-0.0041656494140625
-0.0078277587890625
-0.009796142578125
-0.0093841552734375
-0.0055389404296875
-0.000823974609375
0.0041656494140625
0.0095672607421875
0.0132293701171875
0.0157928466796875
0.0171661376953125
0.0180816650390625
0.0182647705078125
0.0163421630859375
0.0123138427734375
0.00823974609375
0.004852294921875
0.0038909912109375
0.0048065185546875
0.004669189453125
0.0061798095703125
0.0094757080078125
0.0112152099609375
0.012359619140625
0.013824462890625
0.0126800537109375
0.00970458984375
0.0067291259765625
0.0012359619140625
-0.0018768310546875
-0.002471923828125
-0.0015106201171875
0.0003204345703125
0.0016937255859375
0.0045318603515625
0.0112152099609375
0.0162506103515625
0.0226593017578125
0.0271453857421875
0.0261383056640625
0.0233001708984375
0.0146484375
0.0059051513671875
-0.0032958984375
-0.0098419189453125
-0.0123138427734375
-0.0137786865234375
-0.01226806640625
-0.0095672607421875
-0.0059967041015625
-0.0021514892578125
0.00164794921875
0.0048065185546875
0.004852294921875
0.0017852783203125
-0.0013275146484375
-0.00384521484375
-0.0046234130859375
-0.0048980712890625
-0.0044403076171875
-0.003387451171875
-0.0032501220703125
-0.0008697509765625
0.0032501220703125
0.0081024169921875
0.0098419189453125
0.011627197265625
0.0131378173828125
0.0128631591796875
0.0068206787109375
0.0007781982421875
-0.0028839111328125
-0.0045318603515625
-0.00311279296875
-0.0008697509765625
0.0025177001953125
0.0057220458984375
0.0093841552734375
0.0135040283203125
0.0181732177734375
0.01904296875
0.01611328125
0.0122222900390625
0.008148193359375
0.0040740966796875
0.0014190673828125
0.0002288818359375
0.0003204345703125
4.57763671875e-05
-0.0007781982421875
0.00201416015625
0.0057220458984375
0.0092010498046875
0.0098419189453125
0.0072784423828125
0.00384521484375
0.0012359619140625
-0.0027008056640625
-0.0069122314453125
-0.0103912353515625
-0.0124053955078125
-0.0135955810546875
-0.0105743408203125
-0.0037078857421875
0.0032501220703125
0.0093841552734375
0.0150604248046875
0.0210113525390625
0.0253143310546875
0.0273284912109375
0.0277862548828125
0.0247650146484375
0.0191802978515625
0.0135040283203125
0.00897216796875
0.00677490234375
0.00640869140625
0.01043701171875
0.0173492431640625
0.0256805419921875
0.0365753173828125
0.0492095947265625
0.0609283447265625
0.06500244140625
0.06390380859375
0.063995361328125
0.0643157958984375
0.0661468505859375
0.068572998046875
0.07269287109375
0.0768585205078125
0.0804290771484375
0.0855560302734375
0.0954437255859375
0.1044158935546875
0.1082611083984375
0.1051025390625
0.0943450927734375
0.0818939208984375
0.0734710693359375
0.0676116943359375
0.0635833740234375
0.063079833984375
0.062530517578125
0.0602874755859375
0.0581817626953125
0.05511474609375
0.0514984130859375
0.0492095947265625
0.0486602783203125
0.0493011474609375
0.050262451171875
0.0465545654296875
0.041656494140625
0.0391387939453125
0.0359344482421875
0.0330963134765625
0.0321807861328125
0.030990600585937503
0.0284271240234375
0.02508544921875
0.0219268798828125
0.0208282470703125
0.0190887451171875
0.0162506103515625
0.01153564453125
0.0069122314453125
-0.0003204345703125
-0.0063629150390625
-0.0102996826171875
-0.014007568359375
-0.0182647705078125
-0.0191802978515625
-0.0179901123046875
-0.015518188476562498
-0.0106658935546875
-0.0062255859375
-0.0015106201171875
-0.0005950927734375
-0.0024261474609375
-0.0050811767578125
-0.0096588134765625
-0.0167999267578125
-0.0228424072265625
-0.0257720947265625
-0.0259552001953125
-0.0235748291015625
-0.0208282470703125
-0.0158843994140625
-0.01080322265625
-0.0051727294921875
-0.0005035400390625
0.0032501220703125
0.0015106201171875
-0.0027923583984375
-0.0072784423828125
-0.0135040283203125
-0.0187225341796875
-0.0184478759765625
-0.01116943359375
-0.0014190673828125
0.0025177001953125
0.01116943359375
0.0320892333984375
0.06573486328125
0.110595703125
0.15838623046875
0.2010955810546875
0.2486572265625
0.2920989990234375
0.3240509033203125
0.3232269287109375
0.310821533203125
0.3116455078125
0.3283538818359375
0.3477630615234375
0.375091552734375
0.4188995361328125
0.4646759033203125
0.5221710205078125
0.6128082275390625
0.7198333740234375
0.7634124755859375
0.6856842041015625
0.5687713623046875
0.4609222412109375
0.3508758544921875
0.2487030029296875
0.19207763671875
0.20013427734375
0.2351531982421875
0.2590484619140625
0.2609710693359375
0.2378997802734375
0.2045745849609375
0.16790771484375
0.14483642578125
0.13275146484375
0.12835693359375
0.1201629638671875
0.0994720458984375
0.07305908203125
0.036163330078125
-0.0016021728515625
-0.0371246337890625
-0.058135986328125
-0.070953369140625
-0.0801544189453125
-0.0849151611328125
-0.086883544921875
-0.0929718017578125
-0.1021270751953125
-0.1128387451171875
-0.1239166259765625
-0.133575439453125
-0.14263916015625
-0.147125244140625
-0.1467132568359375
-0.1454315185546875
-0.1405792236328125
-0.1343536376953125
-0.1288604736328125
-0.12725830078125
-0.1305999755859375
-0.1379241943359375
-0.1435089111328125
-0.1501922607421875
-0.1546783447265625
-0.1570587158203125
-0.1558685302734375
-0.153350830078125
-0.1516571044921875
-0.1506500244140625
-0.1484527587890625
-0.14447021484375
-0.1399383544921875
-0.1380615234375
-0.1388397216796875
-0.1404876708984375
-0.1437835693359375
-0.1462554931640625
-0.14813232421875
-0.1501922607421875
-0.1497344970703125
-0.149505615234375
-0.1479949951171875
-0.1438751220703125
-0.13714599609375
-0.1304168701171875
-0.125885009765625
-0.1208038330078125
-0.11956787109375
-0.1211700439453125
-0.125335693359375
-0.1289520263671875
-0.1312408447265625
-0.1313323974609375
-0.129730224609375
-0.1274871826171875
-0.12400817871093751
-0.1208953857421875
-0.116729736328125
-0.1132049560546875
-0.1093597412109375
-0.1046905517578125
-0.10015869140625
-0.09942626953125
-0.1012115478515625
-0.1039581298828125
-0.10784912109375
-0.1092681884765625
-0.1092681884765625
-0.1067047119140625
-0.1027679443359375
-0.0992889404296875
-0.0969085693359375
-0.09503173828125
-0.09393310546875
-0.0942535400390625
-0.0956268310546875
-0.09503173828125
-0.0952606201171875
-0.0962677001953125
-0.0978240966796875
-0.09906005859375
-0.0981903076171875
-0.0938873291015625
-0.0878448486328125
-0.081207275390625
-0.0743408203125
-0.0686187744140625
-0.0655975341796875
-0.06719970703125
-0.0715484619140625
-0.07305908203125
-0.0759429931640625
-0.0802459716796875
-0.0842742919921875
-0.08697509765625
-0.0894012451171875
-0.0898590087890625
-0.08807373046875
-0.0845489501953125
-0.0806121826171875
-0.0776824951171875
-0.0763092041015625
-0.0748443603515625
-0.0742950439453125
-0.0788726806640625
-0.0841827392578125
-0.0881195068359375
-0.0894012451171875
-0.0904998779296875
-0.0937957763671875
-0.0950775146484375
-0.0955352783203125
-0.09429931640625
-0.0919647216796875
-0.0897674560546875
-0.0863800048828125
-0.08221435546875
-0.0804290771484375
-0.081390380859375
-0.0839080810546875
-0.0883026123046875
-0.09210205078125
-0.0937042236328125
-0.0953521728515625
-0.0945281982421875
-0.0918731689453125
-0.087982177734375
-0.0827178955078125
-0.0775909423828125
-0.0732421875
-0.072784423828125
-0.075531005859375
-0.076446533203125
-0.0773162841796875
-0.0794677734375
-0.079376220703125
-0.0774993896484375
-0.0754852294921875
-0.0731964111328125
-0.0692596435546875
-0.0623016357421875
-0.0530548095703125
-0.043487548828125
-0.035247802734375
-0.0308990478515625
-0.02801513671875
-0.0233001708984375
-0.0204620361328125
-0.01885986328125
-0.01629638671875
-0.0113067626953125
-0.0055389404296875
0.00201416015625
0.0090179443359375
0.0180816650390625
0.0296173095703125
0.0417938232421875
0.0534210205078125
0.0612030029296875
0.065643310546875
0.0681610107421875
0.0672454833984375
0.0658721923828125
0.06683349609375
0.06829833984375
0.06903076171875
0.0709991455078125
0.0744781494140625
0.08001708984375
0.0853729248046875
0.0936126708984375
0.1010284423828125
0.1063385009765625
0.1050567626953125
0.0999298095703125
0.093109130859375
0.0856475830078125
0.0795135498046875
0.07489013671875
0.0701751708984375
0.06390380859375
0.0619354248046875
0.0623016357421875
0.0644989013671875
0.0681610107421875
0.0677032470703125
0.0638580322265625
0.0586395263671875
0.0529632568359375
0.0471954345703125
0.04266357421875
0.0375823974609375
0.032318115234375
0.0295257568359375
0.02728271484375
0.0260467529296875
0.0252227783203125
0.0236663818359375
0.0215606689453125
0.01995849609375
0.0173492431640625
0.0136871337890625
0.0081024169921875
0.001922607421875
-0.0054473876953125
-0.0113067626953125
-0.0163421630859375
-0.020416259765625
-0.024078369140625
-0.0241241455078125
-0.0230255126953125
-0.02069091796875
-0.0183563232421875
-0.015518188476562498
-0.0139617919921875
-0.0128173828125
-0.01190185546875
-0.013275146484375
-0.0146484375
-0.0165252685546875
-0.0171661376953125
-0.0173492431640625
-0.0158843994140625
-0.0143280029296875
-0.0114898681640625
-0.0105743408203125
-0.00897216796875
-0.006134033203125
-0.0037994384765625
-0.0059051513671875
-0.0103912353515625
-0.01483154296875
-0.0183563232421875
-0.0193634033203125
-0.02069091796875
-0.0231170654296875
-0.024078369140625
-0.0220184326171875
-0.0173492431640625
-0.0109405517578125
-0.0056304931640625
-0.0010528564453125
0.0006866455078125
0.0013275146484375
-0.00054931640625
-0.0048065185546875
-0.0102996826171875
-0.0162506103515625
-0.0197296142578125
-0.0228424072265625
-0.0254058837890625
-0.026824951171875
-0.0254058837890625
-0.0218353271484375
-0.0194549560546875
-0.0190887451171875
-0.0194549560546875
-0.0212860107421875
-0.0241241455078125
-0.0288848876953125
-0.0320892333984375
-0.0329132080078125
-0.0357513427734375
-0.0360260009765625
-0.0319976806640625
-0.0239410400390625
-0.0174407958984375
-0.01153564453125
-0.00823974609375
-0.0056304931640625
-0.00457763671875
-0.0048065185546875
-0.0071868896484375
-0.0124053955078125
-0.0186309814453125
-0.0236663818359375
-0.027008056640625
-0.0286102294921875
-0.027740478515625
-0.02398681640625
-0.0200042724609375
-0.0158843994140625
-0.0113983154296875
-0.0063629150390625
-0.0033416748046875
-0.00238037109375
-0.002838134765625
-0.0045318603515625
-0.0061798095703125
-0.0062255859375
-0.0072784423828125
-0.00823974609375
-0.006500244140625
-0.00457763671875
-0.0007781982421875
0.003753662109375
0.0113067626953125
0.0178985595703125
0.0203704833984375
0.0182647705078125
0.0151519775390625
0.0097503662109375
0.0064544677734375
0.0058135986328125
0.003936767578125
0.0020599365234375
0.00201416015625
0.0038909912109375
0.007781982421875
0.0118560791015625
0.015609741210937498
0.0178985595703125
0.0185394287109375
0.0163421630859375
0.0108489990234375
0.0043487548828125
-0.0023345947265625
-0.0063629150390625
-0.0086517333984375
-0.0087890625
-0.0044403076171875
0.000732421875
0.005950927734375
0.0098419189453125
0.013824462890625
0.019134521484375
0.0222930908203125
0.0193634033203125
0.0137786865234375
0.0084686279296875
0.001739501953125
-0.004302978515625
-0.0098876953125
-0.01116943359375
-0.0102996826171875
-0.0074615478515625
-0.00201416015625
0.0042572021484375
0.0094757080078125
0.0125885009765625
0.0144195556640625
0.0132293701171875
0.0082855224609375
0.00347900390625
-0.0004119873046875
-0.00164794921875
-0.0010986328125
0.0007781982421875
0.0026092529296875
0.0035247802734375
0.0048065185546875
0.0089263916015625
0.0152435302734375
0.0205535888671875
0.0236663818359375
0.02362060546875
0.0201873779296875
0.0159759521484375
0.0120391845703125
0.0081024169921875
0.0046234130859375
0.0039825439453125
0.0046234130859375
0.0105743408203125
0.0168914794921875
0.021881103515625
0.0252227783203125
0.029388427734375
0.0298919677734375
0.0278778076171875
0.0252227783203125
0.02105712890625
0.0148773193359375
0.01116943359375
0.0081024169921875
0.0059051513671875
0.0072784423828125
0.0088348388671875
0.0109405517578125
0.0148773193359375
0.0176239013671875
0.0218353271484375
0.0234375
0.0221099853515625
0.0214691162109375
0.0185394287109375
0.0142364501953125
0.0120391845703125
0.00823974609375
0.0064544677734375
0.00531005859375
0.0037994384765625
0.0053558349609375
0.007965087890625
0.0113067626953125
0.0148773193359375
0.016021728515625
0.0144195556640625
0.01025390625
0.0075531005859375
0.0072784423828125
0.007415771484375
0.0066375732421875
0.006683349609375
0.0053558349609375
0.00347900390625
0.0039825439453125
0.0082855224609375
0.0140533447265625
0.0176239013671875
0.0205078125
0.023712158203125
0.0249481201171875
0.0218353271484375
0.01776123046875
0.0136871337890625
0.0105743408203125
0.0106658935546875
0.011627197265625
0.0120849609375
0.0136871337890625
0.0167999267578125
0.0192718505859375
0.0216522216796875
0.0240325927734375
0.0248565673828125
0.022979736328125
0.0186767578125
0.0145111083984375
0.00970458984375
0.00750732421875
0.0070953369140625
0.0067291259765625
0.0080108642578125
0.0086517333984375
0.010162353515625
0.0139617919921875
0.0179901123046875
0.015609741210937498
0.0124969482421875
0.0108489990234375
0.0083770751953125
0.00604248046875
0.0026092529296875
-9.1552734375e-05
0.00018310546875
0.0032958984375
0.0081024169921875
0.0143280029296875
0.0205535888671875
0.02508544921875
0.02655029296875
0.02618408203125
0.023712158203125
0.0178070068359375
0.0102996826171875
0.0022430419921875
-0.0048065185546875
-0.0087432861328125
-0.009246826171875
-0.0084228515625
-0.0059967041015625
0.0010528564453125
0.0134124755859375
0.0276031494140625
0.0415191650390625
0.0500335693359375
0.05108642578125
0.0480194091796875
0.0453643798828125
0.0463714599609375
0.0464630126953125
0.04998779296875
0.0517730712890625
0.0531463623046875
0.0578155517578125
0.0688018798828125
0.0810699462890625
0.0895843505859375
0.095489501953125
0.0969085693359375
0.0889434814453125
0.0778656005859375
0.0703582763671875
0.0629425048828125
0.0547027587890625
0.04833984375
0.043853759765625
0.0417938232421875
0.03826904296875
0.0337371826171875
0.0318145751953125
0.0313568115234375
0.0335540771484375
0.0336456298828125
0.033966064453125
0.0329132080078125
0.0303497314453125
0.0275115966796875
0.022247314453125
0.0158843994140625
0.01263427734375
0.0130462646484375
0.0149688720703125
0.0167999267578125
0.0178070068359375
0.0178070068359375
0.0167999267578125
0.0146942138671875
0.0116729736328125
0.0073699951171875
0.0017852783203125
-0.005767822265625
-0.0133209228515625
-0.0205535888671875
-0.026824951171875
-0.0298919677734375
-0.0315399169921875
-0.030990600585937503
-0.0276947021484375
-0.0221099853515625
-0.0168914794921875
-0.0132293701171875
-0.0134124755859375
-0.015335083007812498
-0.0197296142578125
-0.0245819091796875
-0.029571533203125
-0.0330963134765625
-0.033416748046875
-0.0322723388671875
-0.0298004150390625
-0.0257720947265625
-0.0203704833984375
-0.01373291015625
-0.0086517333984375
-0.0065460205078125
-0.0095672607421875
-0.0150604248046875
-0.02508544921875
-0.0343780517578125
-0.042205810546875
-0.0418853759765625
-0.0334625244140625
-0.0225677490234375
-0.01446533203125
-0.0026092529296875
0.02178955078125
0.0602874755859375
0.107574462890625
0.1571502685546875
0.2029266357421875
0.2510833740234375
0.2986907958984375
0.3309173583984375
0.3299102783203125
0.3170928955078125
0.32354736328125
0.3543548583984375
0.3860321044921875
0.4221954345703125
0.4633026123046875
0.5104522705078125
0.5782012939453125
0.6748809814453125
0.7872161865234375
0.8422393798828125
0.7831878662109375
0.67840576171875
0.56707763671875
0.44805908203125
0.3419036865234375
0.2723236083984375
0.260467529296875
0.2735137939453125
0.2853240966796875
0.2749786376953125
0.2410125732421875
0.1959686279296875
0.1587982177734375
0.1300506591796875
0.107666015625
0.0914154052734375
0.0756683349609375
0.0557098388671875
0.0241241455078125
-0.0126800537109375
-0.0457763671875
-0.06536865234375
-0.0747528076171875
-0.0839996337890625
-0.09063720703125
-0.0948944091796875
-0.1023101806640625
-0.1127471923828125
-0.1259307861328125
-0.1390228271484375
-0.1514739990234375
-0.1611785888671875
-0.1695098876953125
-0.174224853515625
-0.1768341064453125
-0.176239013671875
-0.1722564697265625
-0.16900634765625
-0.1665802001953125
-0.1655731201171875
-0.167083740234375
-0.1707000732421875
-0.176513671875
-0.1837921142578125
-0.1889190673828125
-0.1935882568359375
-0.1964263916015625
-0.19464111328125
-0.190338134765625
-0.1839752197265625
-0.1776580810546875
-0.17193603515625
-0.1663055419921875
-0.1628265380859375
-0.1618194580078125
-0.1636505126953125
-0.1673126220703125
-0.173583984375
-0.1781158447265625
-0.1788482666015625
-0.1776580810546875
-0.1756439208984375
-0.1720733642578125
-0.1643829345703125
-0.15582275390625
-0.1492767333984375
-0.1436920166015625
-0.140167236328125
-0.1373748779296875
-0.1362762451171875
-0.1372833251953125
-0.14208984375
-0.14630126953125
-0.1494598388671875
-0.1506500244140625
-0.150421142578125
-0.1477203369140625
-0.144195556640625
-0.139801025390625
-0.13568115234375
-0.1294097900390625
-0.1253814697265625
-0.12286376953125
-0.1211700439453125
-0.1230926513671875
-0.1273040771484375
-0.1294097900390625
-0.1313323974609375
-0.132110595703125
-0.130279541015625
-0.1266632080078125
-0.12281799316406249
-0.11810302734375
-0.1113739013671875
-0.10601806640625
-0.1033172607421875
-0.1033172607421875
-0.10455322265625
-0.1100921630859375
-0.1150360107421875
-0.1188812255859375
-0.1194305419921875
-0.1188812255859375
-0.1178741455078125
-0.1172332763671875
-0.1133880615234375
-0.10784912109375
-0.1023101806640625
-0.0975494384765625
-0.0957183837890625
-0.0960845947265625
-0.0964508056640625
-0.1016693115234375
-0.1071624755859375
-0.1115570068359375
-0.11627197265625
-0.1193389892578125
-0.12030029296875
-0.1189727783203125
-0.1157684326171875
-0.1103668212890625
-0.1066131591796875
-0.1027679443359375
-0.0997467041015625
-0.0989227294921875
-0.1011199951171875
-0.1039581298828125
-0.1080780029296875
-0.1109619140625
-0.1151275634765625
-0.1184234619140625
-0.1166839599609375
-0.1131134033203125
-0.10821533203125
-0.1013031005859375
-0.0937042236328125
-0.08770751953125
-0.0859222412109375
-0.087066650390625
-0.090911865234375
-0.0959930419921875
-0.1008453369140625
-0.103179931640625
-0.103546142578125
-0.1054229736328125
-0.1061553955078125
-0.1045074462890625
-0.1000213623046875
-0.092193603515625
-0.0847320556640625
-0.0808868408203125
-0.07672119140625
-0.0741119384765625
-0.0721893310546875
-0.0732879638671875
-0.076995849609375
-0.0803375244140625
-0.0813446044921875
-0.0799713134765625
-0.0771331787109375
-0.07086181640625
-0.0602874755859375
-0.048980712890625
-0.04046630859375
-0.0313568115234375
-0.0231170654296875
-0.0170745849609375
-0.012725830078125
-0.0106658935546875
-0.00970458984375
-0.0079193115234375
-0.0059051513671875
-0.0005950927734375
0.00604248046875
0.01556396484375
0.0252227783203125
0.0362091064453125
0.0485687255859375
0.0585479736328125
0.064361572265625
0.0673370361328125
0.0701751708984375
0.07159423828125
0.0699005126953125
0.0688018798828125
0.0669708251953125
0.0676116943359375
0.0709075927734375
0.07598876953125
0.08038330078125
0.0845489501953125
0.0882110595703125
0.09283447265625
0.0960845947265625
0.09466552734375
0.0908660888671875
0.0863800048828125
0.0808868408203125
0.0731048583984375
0.0673828125
0.0630340576171875
0.06175231933593749
0.061065673828125
0.05987548828125
0.0615692138671875
0.06175231933593749
0.0603790283203125
0.0600128173828125
0.05767822265625
0.0542449951171875
0.048065185546875
0.0406036376953125
0.0341033935546875
0.0295257568359375
0.024993896484375
0.02325439453125
0.0223846435546875
0.0212860107421875
0.0217437744140625
0.0240325927734375
0.0259552001953125
0.0233917236328125
0.02032470703125
0.01611328125
0.0102081298828125
0.0025177001953125
-0.0029754638671875
-0.0070953369140625
-0.0103912353515625
-0.0120849609375
-0.01153564453125
-0.0095672607421875
-0.004302978515625
0.0013275146484375
0.0046234130859375
0.004669189453125
0.001556396484375
-0.0019683837890625
-0.0056304931640625
-0.0066375732421875
-0.0072784423828125
-0.0090179443359375
-0.011077880859375
-0.0113983154296875
-0.0090179443359375
-0.00567626953125
-0.000274658203125
0.0050811767578125
0.008331298828125
0.0102081298828125
0.0093841552734375
0.0080108642578125
0.0043487548828125
-0.00054931640625
-0.0059051513671875
-0.0113983154296875
-0.0147857666015625
-0.0172119140625
-0.018585205078125
-0.01629638671875
-0.0124053955078125
-0.0072784423828125
-0.0029754638671875
-0.0001373291015625
-0.0002288818359375
-0.0033416748046875
-0.0070037841796875
-0.0107574462890625
-0.015335083007812498
-0.0204620361328125
-0.02471923828125
-0.0257720947265625
-0.0256805419921875
-0.022064208984375
-0.0144195556640625
-0.0080108642578125
-0.0054473876953125
-0.0078277587890625
-0.0126800537109375
-0.0178985595703125
-0.0233917236328125
-0.0265960693359375
-0.0290679931640625
-0.03314208984375
-0.0365753173828125
-0.0363922119140625
-0.0345611572265625
-0.03021240234375
-0.0233001708984375
-0.0180816650390625
-0.01556396484375
-0.0139617919921875
-0.0157928466796875
-0.01885986328125
-0.021240234375
-0.02471923828125
-0.0270538330078125
-0.0286102294921875
-0.029205322265625
-0.0271453857421875
-0.0237579345703125
-0.0201873779296875
-0.0135955810546875
-0.007232666015625
-0.0024261474609375
0.0019683837890625
0.0039825439453125
-0.0003204345703125
-0.00677490234375
-0.01263427734375
-0.0146942138671875
-0.01483154296875
-0.0143280029296875
-0.01300048828125
-0.0106658935546875
-0.0077362060546875
-0.0033416748046875
0.0024261474609375
0.0079193115234375
0.0133209228515625
0.01739501953125
0.0157928466796875
0.0117645263671875
0.0083770751953125
0.0048065185546875
-0.000457763671875
-0.0012359619140625
-0.0003204345703125
0.0006866455078125
0.0033416748046875
0.0070037841796875
0.0089263916015625
0.0102996826171875
0.010986328125
0.0102081298828125
0.00787353515625
0.0041656494140625
-0.002105712890625
-0.0044403076171875
-0.0064544677734375
-0.0096588134765625
-0.01043701171875
-0.009796142578125
-0.0084228515625
-0.0079193115234375
-0.00677490234375
-0.0044403076171875
-0.0040740966796875
-0.0054473876953125
-0.0086517333984375
-0.0135955810546875
-0.0215606689453125
-0.026275634765625
-0.0296173095703125
-0.0305328369140625
-0.0310821533203125
-0.0299835205078125
-0.0262298583984375
-0.0178070068359375
-0.008697509765625
-0.0008697509765625
0.0055389404296875
0.0082855224609375
0.0086517333984375
0.0081939697265625
0.0069122314453125
0.0068206787109375
0.00640869140625
0.0062713623046875
0.0064544677734375
0.0057220458984375
0.0051727294921875
0.0063629150390625
0.0096588134765625
0.0105743408203125
0.009979248046875
0.0092010498046875
0.0060882568359375
0.0009613037109375
-0.0040740966796875
-0.0069122314453125
-0.0070953369140625
-0.0063629150390625
-0.0048980712890625
-0.00091552734375
0.0016937255859375
0.0039825439453125
0.0076904296875
0.0122222900390625
0.0157012939453125
0.0170745849609375
0.0139617919921875
0.0070037841796875
-0.0007781982421875
-0.0065460205078125
-0.01043701171875
-0.0122222900390625
-0.01007080078125
-0.0057220458984375
-0.001556396484375
0.0036163330078125
0.0087432861328125
0.0105743408203125
0.0106658935546875
0.0080108642578125
0.0032501220703125
-0.0025177001953125
-0.0081024169921875
-0.0132293701171875
-0.0170745849609375
-0.0182647705078125
-0.015609741210937498
-0.013458251953125
-0.0082855224609375
-0.0013275146484375
0.00640869140625
0.0126800537109375
0.01446533203125
0.0106658935546875
0.0065460205078125
0.0026092529296875
-0.0038909912109375
-0.0117645263671875
-0.0168914794921875
-0.01885986328125
-0.017486572265625
-0.0158843994140625
-0.01226806640625
-0.0089263916015625
-0.0071868896484375
-0.0048065185546875
-0.00091552734375
0.000640869140625
0.0007781982421875
-0.0003662109375
-0.003021240234375
-0.0069580078125
-0.0106201171875
-0.01043701171875
-0.0070953369140625
-0.0059051513671875
-0.003570556640625
0.00311279296875
0.0087432861328125
0.0137786865234375
0.0150604248046875
0.014007568359375
0.011444091796875
0.0061798095703125
0.00091552734375
-0.0028839111328125
-0.0075531005859375
-0.009063720703125
-0.0070953369140625
-0.0037994384765625
0.0009613037109375
0.0066375732421875
0.0102996826171875
0.0139617919921875
0.0158843994140625
0.0147857666015625
0.01043701171875
0.00494384765625
-0.0003662109375
-0.003021240234375
-0.0049896240234375
-0.00494384765625
-0.0037078857421875
-0.00384521484375
-0.0029754638671875
-0.001007080078125
0.001556396484375
0.0046234130859375
0.0059051513671875
0.0066375732421875
0.0061798095703125
0.00531005859375
0.00274658203125
-0.0009613037109375
-0.005126953125
-0.00750732421875
-0.0077362060546875
-0.0056304931640625
-0.00054931640625
0.0053558349609375
0.01190185546875
0.0170745849609375
0.0188140869140625
0.0170745849609375
0.0123138427734375
0.005950927734375
-0.00128173828125
-0.00860595703125
-0.0138702392578125
-0.0158843994140625
-0.01483154296875
-0.0122222900390625
-0.006317138671875
0.0016937255859375
0.0086517333984375
0.016571044921875
0.01885986328125
0.0176239013671875
0.0152435302734375
0.01263427734375
0.0082855224609375
0.0015106201171875
-0.0030670166015625
-0.0063629150390625
-0.0070037841796875
-0.0037078857421875
-0.0006866455078125
0.0030670166015625
0.0085601806640625
0.0164337158203125
0.0190887451171875
0.0174407958984375
0.0143280029296875
0.0087432861328125
0.0038909912109375
0.0018768310546875
0.0013275146484375
-0.0002288818359375
0.0012359619140625
0.0048065185546875
0.0081024169921875
0.0119476318359375
0.0146942138671875
0.015655517578125
0.01611328125
0.0130462646484375
0.0070037841796875
-0.0002288818359375
-0.0080108642578125
-0.0127716064453125
-0.0135955810546875
-0.0122222900390625
-0.010162353515625
-0.0048065185546875
0.0047149658203125
0.0134124755859375
0.0186309814453125
0.0223846435546875
0.02471923828125
0.0222930908203125
0.0188140869140625
0.01483154296875
0.0102996826171875
0.0097503662109375
0.00970458984375
0.0102081298828125
0.0126800537109375
0.01446533203125
0.0149688720703125
0.01666259765625
0.0202789306640625
0.0244903564453125
0.0239410400390625
0.0206451416015625
0.0149688720703125
0.0086517333984375
0.003753662109375
0.000640869140625
-0.0005035400390625
0.002471923828125
0.0124053955078125
0.0238494873046875
0.0359344482421875
0.0438079833984375
0.0482025146484375
0.0527801513671875
0.0589141845703125
0.0656890869140625
0.0728302001953125
0.076263427734375
0.0787811279296875
0.080291748046875
0.0816192626953125
0.0864715576171875
0.0915985107421875
0.0947113037109375
0.0948944091796875
0.0889434814453125
0.0795135498046875
0.0760345458984375
0.07379150390625
0.0713653564453125
0.0672454833984375
0.0619354248046875
0.0538787841796875
0.0410614013671875
0.0273284912109375
0.01776123046875
0.0127716064453125
0.010345458984375
0.0132293701171875
0.01959228515625
0.0228424072265625
0.0252227783203125
0.0267791748046875
0.0281982421875
0.0269622802734375
0.0242156982421875
0.0204620361328125
0.0161590576171875
0.0112152099609375
0.0058135986328125
-0.0023345947265625
-0.00823974609375
-0.010162353515625
-0.0090179443359375
-0.006866455078125
-0.00274658203125
-0.0022430419921875
-0.005035400390625
-0.00823974609375
-0.0135955810546875
-0.01922607421875
-0.0229339599609375
-0.02545166015625
-0.02838134765625
-0.0275115966796875
-0.0248565673828125
-0.0189971923828125
-0.012176513671875
-0.0048980712890625
0.0031585693359375
0.00567626953125
0.0051727294921875
0.00201416015625
-0.0018768310546875
-0.00732421875
-0.0136871337890625
-0.0183563232421875
-0.0234832763671875
-0.0277862548828125
-0.0304412841796875
-0.026092529296875
-0.0200042724609375
-0.01611328125
-0.0127716064453125
-0.0105743408203125
-0.0140533447265625
-0.01593017578125
-0.0141448974609375
-0.007598876953125
-4.57763671875e-05
0.00531005859375
0.0160675048828125
0.04156494140625
0.0807952880859375
0.1295013427734375
0.1782989501953125
0.22650146484375
0.2757110595703125
0.3159942626953125
0.33526611328125
0.3219451904296875
0.3038177490234375
0.3065643310546875
0.31915283203125
0.333160400390625
0.3540802001953125
0.3859405517578125
0.42681884765625
0.4955291748046875
0.5993499755859375
0.703216552734375
0.7178192138671875
0.623382568359375
0.5052337646484375
0.3924407958984375
0.280242919921875
0.1885528564453125
0.1504669189453125
0.172027587890625
0.2019195556640625
0.2229766845703125
0.22100830078125
0.199127197265625
0.1716156005859375
0.1540374755859375
0.1522064208984375
0.1531219482421875
0.1562347412109375
0.1469879150390625
0.1221771240234375
0.07928466796875
0.03094482421875
-0.0133209228515625
-0.0539703369140625
-0.0825347900390625
-0.102630615234375
-0.1156768798828125
-0.1167755126953125
-0.1143951416015625
-0.1106414794921875
-0.113067626953125
-0.1184234619140625
-0.12419128417968749
-0.1317901611328125
-0.1409454345703125
-0.1473541259765625
-0.15325927734375
-0.1567840576171875
-0.1587066650390625
-0.1587066650390625
-0.1555023193359375
-0.1504669189453125
-0.1457061767578125
-0.1425933837890625
-0.1421356201171875
-0.1416778564453125
-0.144012451171875
-0.1473541259765625
-0.1515655517578125
-0.1553192138671875
-0.1587982177734375
-0.1601715087890625
-0.159759521484375
-0.1565093994140625
-0.152252197265625
-0.1468048095703125
-0.142364501953125
-0.13787841796875
-0.1327056884765625
-0.1317901611328125
-0.1362762451171875
-0.1426849365234375
-0.1468963623046875
-0.1518402099609375
-0.1546783447265625
-0.15362548828125
-0.1475372314453125
-0.14007568359375
-0.132293701171875
-0.1257476806640625
-0.1202545166015625
-0.1142578125
-0.11151123046875
-0.1114654541015625
-0.1124725341796875
-0.115814208984375
-0.11920166015625
-0.1217193603515625
-0.1250152587890625
-0.130279541015625
-0.1310577392578125
-0.1294097900390625
-0.1236419677734375
-0.1151275634765625
-0.1062469482421875
-0.0996551513671875
-0.098968505859375
-0.0996551513671875
-0.1018524169921875
-0.1051483154296875
-0.10968017578125
-0.1122894287109375
-0.1115570068359375
-0.1099090576171875
-0.1065673828125
-0.1036834716796875
-0.0997467041015625
-0.0937042236328125
-0.0853729248046875
-0.0809783935546875
-0.0794219970703125
-0.080474853515625
-0.0817108154296875
-0.0823516845703125
-0.0863800048828125
-0.08990478515625
-0.0949859619140625
-0.0961761474609375
-0.09521484375
-0.092193603515625
-0.0891265869140625
-0.086151123046875
-0.082305908203125
-0.0804290771484375
-0.0784149169921875
-0.077728271484375
-0.0795135498046875
-0.0842742919921875
-0.09027099609375
-0.0967254638671875
-0.10345458984375
-0.1077117919921875
-0.1083984375
-0.107757568359375
-0.105743408203125
-0.1021270751953125
-0.0970001220703125
-0.0955352783203125
-0.0948028564453125
-0.0936126708984375
-0.0920562744140625
-0.09356689453125
-0.095947265625
-0.0986480712890625
-0.1033172607421875
-0.1067962646484375
-0.1109161376953125
-0.1114654541015625
-0.1079864501953125
-0.10235595703125
-0.0951690673828125
-0.0937957763671875
-0.09466552734375
-0.0953521728515625
-0.0951690673828125
-0.0952606201171875
-0.0960845947265625
-0.0991058349609375
-0.0993804931640625
-0.0966339111328125
-0.09429931640625
-0.0892181396484375
-0.0824432373046875
-0.07452392578125
-0.0648651123046875
-0.0558013916015625
-0.0470123291015625
-0.0440826416015625
-0.0448150634765625
-0.0454559326171875
-0.0444488525390625
-0.0417022705078125
-0.0393218994140625
-0.0351104736328125
-0.030120849609375
-0.0222015380859375
-0.0120391845703125
-0.0028839111328125
0.0050811767578125
0.0105743408203125
0.0172576904296875
0.0233001708984375
0.028839111328125
0.0332794189453125
0.0376739501953125
0.0412445068359375
0.0443572998046875
0.051177978515625
0.0577239990234375
0.0629425048828125
0.07086181640625
0.0818939208984375
0.0904083251953125
0.1003875732421875
0.1087188720703125
0.1131134033203125
0.11444091796875
0.1132965087890625
0.1121063232421875
0.1080322265625
0.1042327880859375
0.10052490234375
0.0991058349609375
0.1010284423828125
0.10418701171875
0.1067047119140625
0.1078033447265625
0.1078948974609375
0.1061553955078125
0.1020355224609375
0.0963592529296875
0.0884857177734375
0.0805206298828125
0.0722808837890625
0.0665130615234375
0.06353759765625
0.0609283447265625
0.0586395263671875
0.05804443359375
0.0575408935546875
0.0566253662109375
0.0538787841796875
0.0516815185546875
0.0501708984375
0.0446319580078125
0.034332275390625
0.0234832763671875
0.0170745849609375
0.0108489990234375
0.0068206787109375
0.00457763671875
0.0033416748046875
0.0054473876953125
0.00897216796875
0.0127716064453125
0.0148773193359375
0.0157928466796875
0.0141448974609375
0.0076446533203125
0.0010528564453125
-0.0030670166015625
-0.0053558349609375
-0.0041656494140625
-0.0018768310546875
0.0
0.0037078857421875
0.0089263916015625
0.0131378173828125
0.0189971923828125
0.0224761962890625
0.0203704833984375
0.016754150390625
0.0123138427734375
0.0054473876953125
-0.002471923828125
-0.007415771484375
-0.010986328125
-0.0128631591796875
-0.012542724609375
-0.0105743408203125
-0.0092926025390625
-0.00714111328125
-0.0025634765625
-0.0011444091796875
0.0009613037109375
0.0030670166015625
0.0027923583984375
-0.00054931640625
-0.004302978515625
-0.00897216796875
-0.0127716064453125
-0.0140533447265625
-0.012542724609375
-0.0110321044921875
-0.0090179443359375
-0.0042572021484375
0.0009613037109375
0.0038909912109375
0.00347900390625
0.001373291015625
-0.0027923583984375
-0.0110321044921875
-0.0204620361328125
-0.0289764404296875
-0.0370330810546875
-0.04229736328125
-0.0436248779296875
-0.0433502197265625
-0.0399627685546875
-0.0323638916015625
-0.0251312255859375
-0.0209197998046875
-0.0195465087890625
-0.0194549560546875
-0.021697998046875
-0.0245361328125
-0.03131103515625
-0.0364837646484375
-0.0380401611328125
-0.0388641357421875
-0.0393218994140625
-0.039276123046875
-0.0370330810546875
-0.030303955078125
-0.022613525390625
-0.01666259765625
-0.01263427734375
-0.01226806640625
-0.0133209228515625
-0.0164337158203125
-0.0195465087890625
-0.0234375
-0.0282440185546875
-0.0307159423828125
-0.0298004150390625
-0.0265045166015625
-0.0209197998046875
-0.015609741210937498
-0.00933837890625
-0.0040740966796875
-0.0007781982421875
-0.0019683837890625
-0.0050811767578125
-0.0095672607421875
-0.0135955810546875
-0.0176239013671875
-0.0227508544921875
-0.0268707275390625
-0.0274200439453125
-0.02618408203125
-0.022247314453125
-0.0185394287109375
-0.0135955810546875
-0.0111236572265625
-0.0110321044921875
-0.0131378173828125
-0.0160675048828125
-0.0190887451171875
-0.0211944580078125
-0.0235748291015625
-0.0256805419921875
-0.0272369384765625
-0.0281524658203125
-0.0278778076171875
-0.026275634765625
-0.0179901123046875
-0.01300048828125
-0.0092010498046875
-0.004852294921875
0.0002288818359375
0.0027923583984375
0.0035247802734375
0.0007781982421875
-0.001190185546875
-0.000274658203125
0.0032501220703125
0.0044403076171875
0.0065460205078125
0.010345458984375
0.0144195556640625
0.0176239013671875
0.0214691162109375
0.0221099853515625
0.0207366943359375
0.019317626953125
0.015335083007812498
0.00933837890625
0.0061798095703125
0.0040740966796875
0.0024261474609375
0.0022430419921875
0.003204345703125
0.0075531005859375
0.0146942138671875
0.0212860107421875
0.0292510986328125
0.032867431640625
0.0341033935546875
0.03387451171875
0.03057861328125
0.0257720947265625
0.0211944580078125
0.0164337158203125
0.01153564453125
0.0083770751953125
0.0066375732421875
0.0090179443359375
0.0119476318359375
0.0157928466796875
0.017852783203125
0.01922607421875
0.0172576904296875
0.0140533447265625
0.0090179443359375
0.0048065185546875
0.0020599365234375
-0.0018768310546875
-0.0060882568359375
-0.0070953369140625
-0.00567626953125
-0.00494384765625
-0.0026092529296875
0.0006866455078125
0.003936767578125
0.007049560546875
0.01116943359375
0.014190673828125
0.0157012939453125
0.0126800537109375
0.0086517333984375
0.0058135986328125
0.0029754638671875
0.0025177001953125
0.0034332275390625
0.0060882568359375
0.0102996826171875
0.0148773193359375
0.0204620361328125
0.0240325927734375
0.0233001708984375
0.0200958251953125
0.01702880859375
0.0120391845703125
0.0066375732421875
0.0004119873046875
-0.00384521484375
-0.0037994384765625
0.00146484375
0.0088348388671875
0.0159759521484375
0.0241241455078125
0.0310821533203125
0.03350830078125
0.0331878662109375
0.034149169921875
0.0323638916015625
0.0305328369140625
0.02783203125
0.0251312255859375
0.0225677490234375
0.0225677490234375
0.023712158203125
0.02508544921875
0.0275115966796875
0.029022216796875
0.03057861328125
0.0307159423828125
0.0280609130859375
0.02508544921875
0.018585205078125
0.0125885009765625
0.0060882568359375
0.001739501953125
0.0010986328125
0.00347900390625
0.0062713623046875
0.0097503662109375
0.0139617919921875
0.0180816650390625
0.0219268798828125
0.0241241455078125
0.02435302734375
0.021697998046875
0.0167999267578125
0.0099334716796875
0.0033416748046875
-0.0026092529296875
-0.0062713623046875
-0.0062255859375
-0.0055389404296875
-0.003936767578125
-0.00018310546875
0.00604248046875
0.012359619140625
0.01483154296875
0.01629638671875
0.0178070068359375
0.0181732177734375
0.015609741210937498
0.0105743408203125
0.0077362060546875
0.0054473876953125
0.0060882568359375
0.0080108642578125
0.011627197265625
0.0171661376953125
0.0211944580078125
0.0255889892578125
0.0274200439453125
0.02764892578125
0.02471923828125
0.0196380615234375
0.0129547119140625
0.0073699951171875
0.0031585693359375
-0.0005035400390625
-0.002838134765625
-0.0028839111328125
-0.0006866455078125
0.004669189453125
0.01043701171875
0.015472412109375
0.0178985595703125
0.0162506103515625
0.0133209228515625
0.009246826171875
0.0027923583984375
-0.00274658203125
-0.0079193115234375
-0.0100250244140625
-0.0078277587890625
-0.0058135986328125
-0.0029754638671875
0.0003204345703125
0.0046234130859375
0.0089263916015625
0.0124969482421875
0.0138702392578125
0.0165252685546875
0.0198211669921875
0.0215606689453125
0.02032470703125
0.017578125
0.015609741210937498
0.0163421630859375
0.0157012939453125
0.0167083740234375
0.01959228515625
0.0230712890625
0.0273284912109375
0.0302581787109375
0.0317230224609375
0.0295257568359375
0.0245819091796875
0.021331787109375
0.02032470703125
0.0238494873046875
0.02947998046875
0.035247802734375
0.0386810302734375
0.0394134521484375
0.0427093505859375
0.0501708984375
0.0573577880859375
0.0626678466796875
0.0681610107421875
0.0739288330078125
0.0786895751953125
0.0778656005859375
0.0793304443359375
0.08258056640625
0.0829925537109375
0.0790557861328125
0.0672454833984375
0.0570831298828125
0.0544281005859375
0.0549774169921875
0.0547943115234375
0.0536956787109375
0.0492095947265625
0.0457305908203125
0.04010009765625
0.0295257568359375
0.0185394287109375
0.0116729736328125
0.0093841552734375
0.010162353515625
0.0122222900390625
0.0145111083984375
0.0190887451171875
0.02545166015625
0.0297088623046875
0.0314483642578125
0.031036376953124997
0.027557373046875
0.0194549560546875
0.0094757080078125
0.000823974609375
-0.0067291259765625
-0.0110321044921875
-0.0144195556640625
-0.0150604248046875
-0.013092041015625
-0.00897216796875
-0.0070953369140625
-0.0067291259765625
-0.00823974609375
-0.01336669921875
-0.0194549560546875
-0.0227508544921875
-0.0260009765625
-0.0296630859375
-0.0310821533203125
-0.0288848876953125
-0.026458740234375
-0.0239410400390625
-0.0196380615234375
-0.01446533203125
-0.0078277587890625
-0.0008697509765625
0.00494384765625
0.0067291259765625
0.00567626953125
0.0007781982421875
-0.0033416748046875
-0.006134033203125
-0.0092926025390625
-0.0115814208984375
-0.01116943359375
-0.00970458984375
-0.0094757080078125
-0.0096588134765625
-0.0092926025390625
-0.00714111328125
-0.0075531005859375
-0.0061798095703125
0.0004119873046875
0.0059967041015625
0.0083770751953125
0.0178070068359375
0.038909912109375
0.07232666015625
0.1154022216796875
0.1593475341796875
0.2046661376953125
0.2558441162109375
0.30340576171875
0.3274383544921875
0.3223114013671875
0.3137969970703125
0.3219451904296875
0.3376922607421875
0.3534393310546875
0.3788909912109375
0.4125823974609375
0.4506683349609375
0.51617431640625
0.619720458984375
0.7180938720703125
0.7180938720703125
0.6192169189453125
0.5058746337890625
0.4035186767578125
0.3018035888671875
0.21917724609375
0.191436767578125
0.2153778076171875
0.244903564453125
0.2560272216796875
0.2445831298828125
0.21258544921875
0.1752777099609375
0.15069580078125
0.1449737548828125
0.1475372314453125
0.15655517578125
0.15106201171875
0.1294097900390625
0.0926055908203125
0.0465545654296875
0.0019683837890625
-0.0374908447265625
-0.0641326904296875
-0.0839996337890625
-0.09375
-0.0912322998046875
-0.0869293212890625
-0.0849151611328125
-0.0848236083984375
-0.08734130859375
-0.0919647216796875
-0.1009368896484375
-0.1099090576171875
-0.1175079345703125
-0.12409973144531249
-0.1304168701171875
-0.1352691650390625
-0.1386566162109375
-0.1398468017578125
-0.1383819580078125
-0.13604736328125
-0.132476806640625
-0.1293182373046875
-0.1261138916015625
-0.12483215332031249
-0.1242828369140625
-0.1252899169921875
-0.13055419921875
-0.1352691650390625
-0.13861083984375
-0.141998291015625
-0.1441497802734375
-0.1461639404296875
-0.1474456787109375
-0.142822265625
-0.1359100341796875
-0.128173828125
-0.1217193603515625
-0.1181488037109375
-0.11590576171875
-0.1159515380859375
-0.1188812255859375
-0.1222686767578125
-0.1251983642578125
-0.1285858154296875
-0.1296844482421875
-0.1294097900390625
-0.1299591064453125
-0.1278076171875
-0.12506103515625
-0.12272644042968749
-0.1193389892578125
-0.1176910400390625
-0.1180572509765625
-0.1193389892578125
-0.1208038330078125
-0.1238250732421875
-0.1256561279296875
-0.1264801025390625
-0.1253814697265625
-0.1230926513671875
-0.1201629638671875
-0.1156768798828125
-0.109954833984375
-0.10235595703125
-0.0978240966796875
-0.0952606201171875
-0.09503173828125
-0.0942535400390625
-0.094940185546875
-0.1003875732421875
-0.1059722900390625
-0.10931396484375
-0.1108245849609375
-0.1087188720703125
-0.1048736572265625
-0.1017608642578125
-0.0993804931640625
-0.09539794921875
-0.09356689453125
-0.0924224853515625
-0.0926055908203125
-0.0948028564453125
-0.0986480712890625
-0.1041412353515625
-0.1104583740234375
-0.113433837890625
-0.1155853271484375
-0.1160430908203125
-0.1116485595703125
-0.1051483154296875
-0.0983734130859375
-0.09027099609375
-0.0846405029296875
-0.0821685791015625
-0.0828094482421875
-0.0850067138671875
-0.0876617431640625
-0.0915985107421875
-0.0948944091796875
-0.0968170166015625
-0.0984649658203125
-0.0989227294921875
-0.100067138671875
-0.09942626953125
-0.0948028564453125
-0.0883941650390625
-0.083038330078125
-0.0797882080078125
-0.0800628662109375
-0.0803375244140625
-0.0828094482421875
-0.0865631103515625
-0.0894927978515625
-0.0926513671875
-0.0935211181640625
-0.09320068359375
-0.0918731689453125
-0.0894927978515625
-0.0849151611328125
-0.0797882080078125
-0.0765838623046875
-0.0743865966796875
-0.07525634765625
-0.0775909423828125
-0.0829010009765625
-0.089447021484375
-0.094573974609375
-0.096588134765625
-0.101348876953125
-0.1014862060546875
-0.099334716796875
-0.0951690673828125
-0.0888519287109375
-0.0818939208984375
-0.0753936767578125
-0.0699920654296875
-0.0652313232421875
-0.0625762939453125
-0.0606536865234375
-0.059967041015625
-0.0591888427734375
-0.0576324462890625
-0.0558929443359375
-0.0527801513671875
-0.0471954345703125
-0.0392303466796875
-0.0284271240234375
-0.0197296142578125
-0.0128173828125
-0.00640869140625
-9.1552734375e-05
0.00421142578125
0.0088348388671875
0.0111236572265625
0.0147857666015625
0.0178985595703125
0.0231170654296875
0.031585693359375
0.03826904296875
0.0457305908203125
0.0558013916015625
0.06536865234375
0.0761260986328125
0.0828094482421875
0.085052490234375
0.0863800048828125
0.0851898193359375
0.0813446044921875
0.0793304443359375
0.0774078369140625
0.0783233642578125
0.079925537109375
0.0824432373046875
0.08587646484375
0.0907745361328125
0.0948028564453125
0.0978240966796875
0.097320556640625
0.0937042236328125
0.08880615234375
0.0823516845703125
0.0742034912109375
0.0666046142578125
0.05987548828125
0.0547027587890625
0.050811767578125
0.04815673828125
0.0485687255859375
0.0506744384765625
0.0519561767578125
0.0526885986328125
0.0524139404296875
0.0498504638671875
0.0438995361328125
0.036895751953125
0.0283355712890625
0.0196380615234375
0.01190185546875
0.0076446533203125
0.0052642822265625
0.0026092529296875
0.0019683837890625
0.0050811767578125
0.0080108642578125
0.0104827880859375
0.01226806640625
0.0095672607421875
0.0070037841796875
0.00457763671875
0.000274658203125
-0.0022430419921875
-0.0039825439453125
-0.006500244140625
-0.0073699951171875
-0.0100250244140625
-0.0099334716796875
-0.0047149658203125
0.0010528564453125
0.0031585693359375
0.003021240234375
0.0005035400390625
-0.0031585693359375
-0.00823974609375
-0.0135955810546875
-0.0194549560546875
-0.0234832763671875
-0.0254058837890625
-0.0253143310546875
-0.0246734619140625
-0.0212860107421875
-0.0150146484375
-0.0083770751953125
-0.00311279296875
-0.00146484375
-0.0037078857421875
-0.0074615478515625
-0.0132293701171875
-0.0191802978515625
-0.0232086181640625
-0.0233001708984375
-0.023895263671875
-0.02471923828125
-0.0238494873046875
-0.0215606689453125
-0.0165252685546875
-0.0107574462890625
-0.00567626953125
-0.00347900390625
-0.0045318603515625
-0.0095672607421875
-0.0175323486328125
-0.025726318359375
-0.03204345703125
-0.0386810302734375
-0.0438995361328125
-0.0481109619140625
-0.049713134765625
-0.0488433837890625
-0.0449981689453125
-0.0389556884765625
-0.0347442626953125
-0.0333709716796875
-0.0363922119140625
-0.038818359375
-0.0402374267578125
-0.0414276123046875
-0.0424346923828125
-0.0443572998046875
-0.04449462890625
-0.0436248779296875
